# Radius RDF_mean RDF_std
7.500000000000896228e-02 9.122557510540785231e-02 5.856830755989407278e-01
2.249999999999577616e-01 8.613690658568889935e-02 3.234233975447120546e-01
3.750000000000000000e-01 9.106689040634149968e-02 2.595657791708127493e-01
5.249999999999700462e-01 8.542087138739720698e-02 2.123721578701631418e-01
6.750000000001169509e-01 8.983214049079336905e-02 1.966271906978863115e-01
8.249999999998777200e-01 9.092232646375694727e-02 1.755291755199487880e-01
9.750000000001839418e-01 9.214226032362507479e-02 1.642547354374619961e-01
1.125000000000000000e+00 9.610405622141467152e-02 1.580156754529600249e-01
1.274999999999773648e+00 9.843343121787118122e-02 1.484263228995229555e-01
1.424999999999764455e+00 1.047000231108940055e-01 1.446332892758596111e-01
1.575000000000282396e+00 1.073704506475350179e-01 1.371158587579788535e-01
1.725000000000170397e+00 1.152081231857202959e-01 1.367143187687170081e-01
1.875000000000000000e+00 1.190180491686485681e-01 1.332532090615150266e-01
2.025000000000070521e+00 1.272060327079090059e-01 1.331247891655191751e-01
2.174999999999594813e+00 1.372878202516763513e-01 1.337655844840419939e-01
2.325000000000426059e+00 1.471436949441892461e-01 1.339158392670752595e-01
2.474999999999678124e+00 1.604393382341170737e-01 1.355742816894534852e-01
2.625000000000000000e+00 1.804549937973868590e-01 1.394941126771378770e-01
2.775000000000444444e+00 1.990852331623882143e-01 1.464041921605418184e-01
2.924999999999512212e+00 2.233129279437110759e-01 1.471678024759869863e-01
3.075000000000499334e+00 2.597707451558864955e-01 1.539522397141075416e-01
3.224999999999414779e+00 2.923803482528556374e-01 1.591449919674717273e-01
3.375000000000000000e+00 3.445899857825196477e-01 1.712398054636939670e-01
3.525000000000659384e+00 4.066642182166217978e-01 1.807224738641645401e-01
3.674999999999857714e+00 4.867292947442572459e-01 1.918786455649735267e-01
3.825000000000022382e+00 5.953174756722532379e-01 2.087156631304375454e-01
3.974999999999250466e+00 7.560318823164835500e-01 2.315520890429884071e-01
4.125000000000000000e+00 9.918760181077362903e-01 2.565107230201594812e-01
4.275000000000798828e+00 1.286309237666725780e+00 2.908454307844372533e-01
4.425000000000374634e+00 1.501649903659287855e+00 3.083468477884964143e-01
4.574999999999541878e+00 1.548005087530750279e+00 3.063468904033624929e-01
4.724999999999138112e+00 1.471498053947299711e+00 2.974421028694000380e-01
4.875000000000000000e+00 1.344998172725683894e+00 2.762556297971016650e-01
5.025000000000897415e+00 1.233380164455110783e+00 2.631284730602296285e-01
5.175000000000743228e+00 1.131653779322592701e+00 2.448054631342416465e-01
5.324999999999196376e+00 1.065376765692229721e+00 2.349550992419376649e-01
5.474999999999057287e+00 1.029662511235944766e+00 2.301932495629891717e-01
5.625000000000000000e+00 1.031709205005269192e+00 2.255920569625646521e-01
5.775000000000969358e+00 1.058743055188960058e+00 2.253544819514951836e-01
5.925000000001017675e+00 1.118020133850410325e+00 2.293034316138966022e-01
6.074999999998936140e+00 1.193911191137889904e+00 2.304356986664127527e-01
6.224999999998995115e+00 1.219427060235443561e+00 2.321720838914804741e-01
6.375000000000000000e+00 1.200701380214367342e+00 2.261317255787274605e-01
6.525000000001025313e+00 1.134382083138543162e+00 2.191464189732100221e-01
6.675000000001229949e+00 1.063944338975735704e+00 2.086179428928553181e-01
6.824999999998733635e+00 1.007831191423040007e+00 1.999498787937107613e-01
6.974999999999387690e+00 9.682661784445668607e-01 1.948881960260869795e-01
7.125000000000000000e+00 9.425792080844147547e-01 1.915438515213807591e-01
7.275000000000346745e+00 9.369555776067222119e-01 1.893535606276094962e-01
7.425000000001398703e+00 9.359413927345876516e-01 1.883483167981402084e-01
7.574999999998571099e+00 9.463063473156863026e-01 1.863324417468603666e-01
7.725000000000012079e+00 9.494279279073030153e-01 1.858886334057731071e-01
7.875000000000000000e+00 9.498130035271392657e-01 1.824658538700841548e-01
8.024999999999771205e+00 9.448383788946661532e-01 1.811901334215155479e-01
8.175000000001539036e+00 9.395538014256015202e-01 1.782620036452070011e-01
8.324999999998437872e+00 9.416149626514497273e-01 1.773225751673723760e-01
8.475000000000525446e+00 9.518960151316852025e-01 1.772450777404018241e-01
8.625000000000000000e+00 9.696689071682684791e-01 1.777861079146429713e-01
8.774999999999291589e+00 9.798709152127754729e-01 1.768977722455573609e-01
8.925000000001652722e+00 1.003447599999262252e+00 1.777984631994279918e-01
9.074999999998325961e+00 1.018474262557137688e+00 1.786338063212447869e-01
9.225000000000957101e+00 1.033653858601188080e+00 1.777816635544902935e-01
9.375000000000000000e+00 1.041690363261747354e+00 1.756033974491791605e-01
9.524999999998890132e+00 1.047850790103213914e+00 1.764896413131114838e-01
9.675000000001750422e+00 1.048827016288467862e+00 1.729069284067925039e-01
9.824999999998231814e+00 1.047331239455173035e+00 1.715871931525991545e-01
9.975000000001321254e+00 1.050139478793447489e+00 1.705251562609525207e-01
1.012500000000000000e+01 1.046088072390592760e+00 1.687824016496879964e-01
1.027499999999854730e+01 1.045295630948830601e+00 1.669683979686119868e-01
1.042500000000183391e+01 1.042247560687223462e+00 1.654711910996425062e-01
1.057499999999815010e+01 1.038866816066884358e+00 1.644878513881918858e-01
1.072500000000163745e+01 1.032098484794945259e+00 1.603134808181393700e-01
1.087500000000000000e+01 1.027544334981533192e+00 1.615627954856387327e-01
1.102499999999824887e+01 1.021803555373151706e+00 1.606380409368605433e-01
1.117500000000190674e+01 1.018164046867456651e+00 1.615632740589643956e-01
1.132499999999808082e+01 1.007853379910234715e+00 1.579586710974424657e-01
1.147500000000190923e+01 1.003310285116737699e+00 1.563683885793169526e-01
1.162500000000000000e+01 9.954829951279307032e-01 1.562370435950708181e-01
1.177499999999798952e+01 9.884657202105519014e-01 1.541308401333491007e-01
1.192500000000196891e+01 9.832254678900301803e-01 1.524097497814000945e-01
1.207499999999801865e+01 9.787025329023149034e-01 1.509208345139806950e-01
1.222500000000215081e+01 9.760035110882124831e-01 1.486933020873314748e-01
1.237500000000000000e+01 9.717752510758825846e-01 1.486518286386867838e-01
1.252499999999776215e+01 9.717798352671476181e-01 1.482173176461615283e-01
1.267500000000202398e+01 9.742014202684446955e-01 1.460728812341140492e-01
1.282499999999796536e+01 9.771965165916863816e-01 1.472048227307293233e-01
1.297500000000236220e+01 9.793520756786020520e-01 1.455942528834456295e-01
1.312500000000000000e+01 9.827043260511674205e-01 1.442029304479645058e-01
1.327499999999756142e+01 9.851676766249829464e-01 1.438018034132726164e-01
1.342500000000173088e+01 9.906398260736470895e-01 1.411596798169729716e-01
1.357499999999841833e+01 9.944925243577409368e-01 1.415235216862437695e-01
1.372500000000255049e+01 9.952017709194416195e-01 1.446932209871449881e-01
1.387500000000000000e+01 1.002954272518641332e+00 1.423511588580312626e-01
1.402499999999738023e+01 1.003915404134841038e+00 1.408439942414011770e-01
1.417500000000102034e+01 1.009465826945825428e+00 1.400050037860599006e-01
1.432499999999911111e+01 1.009841961160265367e+00 1.414597448385874756e-01
1.447500000000271925e+01 1.011236744599241399e+00 1.410313723472619296e-01
1.462500000000000000e+01 1.011187548039255812e+00 1.389641194736566387e-01
1.477499999999721680e+01 1.012452119453545185e+00 1.376587413042896779e-01
1.492500000000038618e+01 1.016976190456126750e+00 1.370942481384312961e-01
1.507499999999973639e+01 1.012632315475811895e+00 1.380327019375802156e-01
1.522500000000287201e+01 1.012624139447364069e+00 1.355209681046267156e-01
1.537500000000000000e+01 1.009181822090554403e+00 1.354132767781164870e-01
1.552499999999706937e+01 1.012716278029716976e+00 1.354180163932541536e-01
1.567499999999980886e+01 1.005211209328772393e+00 1.341764641908176903e-01
1.582500000000029772e+01 1.005368630621819914e+00 1.336507055215791495e-01
1.597500000000300879e+01 1.003629719419213195e+00 1.325407368827902221e-01
1.612500000000000000e+01 1.002481660890555348e+00 1.327501340698724608e-01
1.627499999999693969e+01 1.001957368152945671e+00 1.322087081243277229e-01
1.642499999999928662e+01 1.000506475320230404e+00 1.302933316664678098e-01
1.657500000000081286e+01 9.943073349218707335e-01 1.290755997591966631e-01
1.672500000000313847e+01 9.924844583116334551e-01 1.282367950115321231e-01
1.687500000000000000e+01 9.941250762754197945e-01 1.269355019751283731e-01
1.702499999999681535e+01 9.928121934914146962e-01 1.278535738238510411e-01
1.717499999999880700e+01 9.947262380186979724e-01 1.273814221683477188e-01
1.732500000000128182e+01 9.918768931782256937e-01 1.264957880925369205e-01
1.747500000000325215e+01 9.944615733346894304e-01 1.258309887922433867e-01
1.762500000000000000e+01 9.940925568334995077e-01 1.251794456828439206e-01
1.777499999999670521e+01 9.947498094114752831e-01 1.237895728403202028e-01
1.792499999999837357e+01 9.933469839825014303e-01 1.258197311934553808e-01
1.807500000000171170e+01 9.973788096543375614e-01 1.239874445619841836e-01
1.822500000000335874e+01 9.965158174642981814e-01 1.240989951519898826e-01
1.837500000000000000e+01 9.999525100569587321e-01 1.219346905250454638e-01
1.852499999999660218e+01 9.992517601269866878e-01 1.240318367333054783e-01
1.867499999999797211e+01 1.000692701608790980e+00 1.213946354817309753e-01
1.882500000000210960e+01 1.000647065700548399e+00 1.233037854213643036e-01
1.897500000000345466e+01 1.002547668121522628e+00 1.223296450075481434e-01
1.912500000000000000e+01 1.000760812288872037e+00 1.228114460992153212e-01
1.927499999999650626e+01 1.002451231527681896e+00 1.199615696934604459e-01
1.942499999999759908e+01 1.004779044523398612e+00 1.211082268066670381e-01
1.957500000000247198e+01 1.001674798134608801e+00 1.200449544406197999e-01
1.972500000000354348e+01 1.001812174407818112e+00 1.182723607161058621e-01
1.987500000000000000e+01 1.002677052180972694e+00 1.169600622851102445e-01
2.002499999999642100e+01 9.995595306422098147e-01 1.181200492556347681e-01
2.017499999999725446e+01 1.000934775635842433e+00 1.177754795082981976e-01
2.032500000000281304e+01 9.999807718246215282e-01 1.174842650109255288e-01
2.047500000000362874e+01 1.001580854769616780e+00 1.163860932352432515e-01
2.062500000000000000e+01 9.968257784481012740e-01 1.147896110477944903e-01
2.077499999999633928e+01 9.983776507720253379e-01 1.152364018067693480e-01
2.092499999999693472e+01 9.979552363569529350e-01 1.168329824796629363e-01
2.107500000000312212e+01 9.972712472893052738e-01 1.153599501077672562e-01
2.122500000000370690e+01 9.971166532903252833e-01 1.134882944010494749e-01
2.137500000000000000e+01 9.960843697210218783e-01 1.146540227042968374e-01
2.152499999999626468e+01 9.946898840607378833e-01 1.145191803352446358e-01
2.167499999999663984e+01 9.970250669695422951e-01 1.139813574721130346e-01
2.182500000000341700e+01 9.948912482039536931e-01 1.138014742429139664e-01
2.197500000000377796e+01 9.962244486301459201e-01 1.131461903001542563e-01
2.212500000000000000e+01 9.956598855401773696e-01 1.138573835855044430e-01
2.227499999999619718e+01 9.942551498264426968e-01 1.107300998249521884e-01
2.242499999999636273e+01 9.946825215664063524e-01 1.106806573124342746e-01
2.257500000000369056e+01 9.967511470130757667e-01 1.111389046027275312e-01
2.272500000000384546e+01 9.948946088050100167e-01 1.098678609865625239e-01
2.287500000000000000e+01 9.993284229534763474e-01 1.102032928438660131e-01
2.302499999999612967e+01 9.989833300090699142e-01 1.107292965517238659e-01
2.317499999999610338e+01 9.980754630381851733e-01 1.096722362924973659e-01
2.332500000000394635e+01 9.996506493144819983e-01 1.089252890755880859e-01
2.347500000000390941e+01 9.997354441181501850e-01 1.088976171028446654e-01
2.362500000000000000e+01 9.995730886188307629e-01 1.081768431797119484e-01
2.377499999999606928e+01 9.980880278373890357e-01 1.073460333288970697e-01
2.392499999999586180e+01 9.999828783912884100e-01 1.066306252926924464e-01
2.407500000000418439e+01 9.981359838355499114e-01 1.085784302141527408e-01
2.422500000000396625e+01 9.996269804738775466e-01 1.102195010488101617e-01
2.437500000000000000e+01 9.972509166445987505e-01 1.061519530818808149e-01
2.452499999999600888e+01 9.988774808256645210e-01 1.064023051484538906e-01
2.467499999999563087e+01 1.000361379990583943e+00 1.053650709315477330e-01
2.482500000000441176e+01 1.000871591253281068e+00 1.067391670939250997e-01
2.497500000000402309e+01 9.998574789986294231e-01 1.055945558149288810e-01
2.512500000000000000e+01 9.981020902232272674e-01 1.045596468021182668e-01
2.527499999999595559e+01 1.000460181056669784e+00 1.057872532338580279e-01
2.542499999999541771e+01 9.988965332775673334e-01 1.038090516212310382e-01
2.557500000000462137e+01 9.995744820719990598e-01 1.032274291536066091e-01
2.572500000000407638e+01 9.975048048527436206e-01 1.043611139294307183e-01
2.587500000000000000e+01 9.995600206406890509e-01 1.037623310474741212e-01
2.602499999999590585e+01 9.972521523902645457e-01 1.038808077606903774e-01
2.617499999999521521e+01 9.964738090885998378e-01 1.039462757630528617e-01
2.632500000000482032e+01 9.974223309229994783e-01 1.038526568836122960e-01
2.647500000000383480e+01 9.968374302336014958e-01 1.034006910410920910e-01
2.662500000000000000e+01 9.960507956996180745e-01 1.019738876337150102e-01
2.677499999999647073e+01 9.969938055297957735e-01 1.006585276921565103e-01
2.692499999999502691e+01 9.958091785622180669e-01 1.025223695647469180e-01
2.707500000000501217e+01 9.969033041721945265e-01 1.021301669140850799e-01
2.722500000000308873e+01 9.979762822318576365e-01 1.006427466120674158e-01
2.737500000000000000e+01 9.971398661657534523e-01 9.991171540852314403e-02
2.752499999999719549e+01 9.964202668237021054e-01 1.003422855531819757e-01
2.767499999999484928e+01 9.986245135782472193e-01 1.009175466457334774e-01
2.782500000000518625e+01 9.969647529042059420e-01 9.953042294123873313e-02
2.797500000000238529e+01 9.972955259782605442e-01 9.939134301665138171e-02
2.812500000000000000e+01 9.972513624633704277e-01 1.000862046856461351e-01
2.827499999999788827e+01 9.984591125962489766e-01 9.911933873779525672e-02
2.842499999999467164e+01 9.971001751699460902e-01 9.968449316265712290e-02
2.857500000000536033e+01 9.984164298554174533e-01 9.777469640097005699e-02
2.872500000000171028e+01 9.964247140761212096e-01 9.841218537974749658e-02
2.887500000000000000e+01 9.966174160048667519e-01 9.732878518459490980e-02
2.902499999999854552e+01 9.972400518055904994e-01 9.873715119701126364e-02
2.917499999999451177e+01 9.978452685738750105e-01 9.758001409111298485e-02
2.932500000000552021e+01 9.970445178956310883e-01 9.730014923722690723e-02
2.947500000000107434e+01 9.956475567494394996e-01 9.831094552000581299e-02
2.962500000000000000e+01 9.985752347230749670e-01 9.686448966525126880e-02
2.977499999999917080e+01 9.982635725263324655e-01 9.645311282703419864e-02
2.992499999999435900e+01 9.977696194856731093e-01 9.617683871345560076e-02
3.007500000000566942e+01 9.974356233719120501e-01 9.645231261563226577e-02
3.022500000000047393e+01 9.986769587460176956e-01 9.536191183319971121e-02
3.037500000000000000e+01 9.976282882632496740e-01 9.549222814710507656e-02
3.052499999999976410e+01 9.995246225101798165e-01 9.541878082441514197e-02
3.067499999999420623e+01 9.989695273631450378e-01 9.513548976839039661e-02
3.082500000000581508e+01 9.984452609989581395e-01 9.585755690825147057e-02
3.097499999999989839e+01 9.991814739891005104e-01 9.441418412624469347e-02
3.112500000000000000e+01 9.966441128329127652e-01 9.489640958061019982e-02
3.127500000000032898e+01 9.982606901534276655e-01 9.356197713220404388e-02
3.142499999999406768e+01 9.967405226765941872e-01 9.363266648072002263e-02
3.157500000000595364e+01 9.991821024826619269e-01 9.318619839998112941e-02
3.172499999999935127e+01 9.987884673005447134e-01 9.347187605723060455e-02
3.187500000000000000e+01 9.980531096677476288e-01 9.321648925257029761e-02
3.202500000000086544e+01 9.971542641500671378e-01 9.314944830613500204e-02
3.217499999999394333e+01 9.984414169310281695e-01 9.313381427838339499e-02
3.232500000000609219e+01 9.981347611858882862e-01 9.253145162099804533e-02
3.247499999999882903e+01 9.992988023567174194e-01 9.208177527906648285e-02
3.262500000000000000e+01 9.971853598741058367e-01 9.289831738862208699e-02
3.277500000000137703e+01 9.988547439361455949e-01 9.196320407999013236e-02
3.292499999999381544e+01 9.996971706350663567e-01 9.175226964198479607e-02
3.307500000000621299e+01 9.989068425597843470e-01 9.215741766855894967e-02
3.322499999999832454e+01 9.995302881366532333e-01 9.123469136277299885e-02
3.337500000000000000e+01 9.994549518522126696e-01 9.183004578485658154e-02
3.352500000000186731e+01 9.988795416166282859e-01 9.156727466022139550e-02
3.367499999999368754e+01 9.993837811593452303e-01 9.015972817895823166e-02
3.382500000000633378e+01 9.993721861159555742e-01 9.074409361789485817e-02
3.397499999999784848e+01 1.000413737154905114e+00 8.896841908487210238e-02
3.412500000000000000e+01 1.000421094429552626e+00 8.956379443585447964e-02
3.427500000000233626e+01 1.000147632319722701e+00 9.146243334827944271e-02
3.442499999999357385e+01 9.989969147194054377e-01 8.959709029871455732e-02
3.457500000000644746e+01 9.996155762454924654e-01 8.882518986535897776e-02
3.472499999999739373e+01 1.002030361609029807e+00 9.005510755166969139e-02
3.487500000000000000e+01 1.001206327724311729e+00 8.930007313784614487e-02
3.502500000000278391e+01 1.000078203856400227e+00 8.949345782278889105e-02
3.517499999999346016e+01 9.988673669679758449e-01 8.821462633465732006e-02
3.532500000000656115e+01 9.995809334683054548e-01 8.949948623803606618e-02
3.547499999999695319e+01 9.987674054908980414e-01 8.892380990147154274e-02
3.562500000000000000e+01 9.997952581149605056e-01 8.776088473544690904e-02
3.577500000000321734e+01 1.001366250157558646e+00 8.856614028530027105e-02
3.592499999999336069e+01 1.000669217850329806e+00 8.885354582028796855e-02
3.607500000000666773e+01 1.001133911973900892e+00 8.749543418272789919e-02
3.622499999999653397e+01 9.995018643782559442e-01 8.683322685171140920e-02
3.637500000000000000e+01 9.998942742035420439e-01 8.737712103211053849e-02
3.652500000000362235e+01 1.000600989306923205e+00 8.747957749968866825e-02
3.667499999999325411e+01 9.991017872556993140e-01 8.801616041293577886e-02
3.682500000000676721e+01 1.000010726130293737e+00 8.661487283799795822e-02
3.697499999999613607e+01 9.994736247962748843e-01 8.667219366602571529e-02
3.712500000000000000e+01 9.991528400020106560e-01 8.693138547192459653e-02
3.727500000000402736e+01 1.000782895935694361e+00 8.614860056884671158e-02
3.742499999999315463e+01 1.001951327196419772e+00 8.628184090375282111e-02
3.757500000000686668e+01 9.977106637311711212e-01 8.544591939711096429e-02
3.772499999999575238e+01 9.992443220997929698e-01 8.616085822938351901e-02
3.787500000000000000e+01 1.000879288491183905e+00 8.620003983019422500e-02
3.802500000000440394e+01 1.002280594111822909e+00 8.567068625253722314e-02
3.817499999999306226e+01 9.977554875462337769e-01 8.587169922862925020e-02
3.832500000000695906e+01 1.001159695159265173e+00 8.559854698544239193e-02
3.847499999999537579e+01 9.991226748516286449e-01 8.481136710104514309e-02
3.862500000000000000e+01 1.000551773362034602e+00 8.554074268742710430e-02
3.877500000000476632e+01 1.001243792374811203e+00 8.462003914193018395e-02
3.892499999999297700e+01 9.999257525364285693e-01 8.539597050937318412e-02
3.907500000000705143e+01 1.000249789714385829e+00 8.373500855571903989e-02
3.922499999999502052e+01 9.992579695739728374e-01 8.447184553264466822e-02
3.937500000000000000e+01 1.000419611979349588e+00 8.481244462104126081e-02
3.952500000000512159e+01 9.990206111729499350e-01 8.408311555361724920e-02
3.967499999999288463e+01 9.993756744481646637e-01 8.336585527343708113e-02
3.982500000000712959e+01 9.988925131173878036e-01 8.449156410801636485e-02
