# Radius RDF_mean RDF_std
7.500000000000896228e-02 3.147795997249173139e-01 9.172857219034217247e-01
2.249999999999577616e-01 3.117180140811670053e-01 5.347352506767880653e-01
3.750000000000000000e-01 3.156266477935803505e-01 4.095908134513735477e-01
5.249999999999700462e-01 3.314261753672647082e-01 3.589962564115899424e-01
6.750000000001169509e-01 3.378332753015230727e-01 3.168471480379593808e-01
8.249999999998777200e-01 3.486678145665899620e-01 2.934336445007332261e-01
9.750000000001839418e-01 3.576261014532610694e-01 2.708146337343062537e-01
1.125000000000000000e+00 3.714385761843041478e-01 2.608284930830966908e-01
1.274999999999773648e+00 3.909391405964813826e-01 2.484243876542877871e-01
1.424999999999764455e+00 4.158992696174743098e-01 2.397917986116829825e-01
1.575000000000282396e+00 4.377834826065589158e-01 2.368961284685390523e-01
1.725000000000170397e+00 4.646072358621490817e-01 2.339767215986343907e-01
1.875000000000000000e+00 4.891226459426110118e-01 2.305073032982482562e-01
2.025000000000070521e+00 5.181544659716829093e-01 2.240016926968228517e-01
2.174999999999594813e+00 5.482222063492380171e-01 2.274242038296659385e-01
2.325000000000426059e+00 5.828672360940055919e-01 2.229698928671729197e-01
2.474999999999678124e+00 6.126291624461605023e-01 2.222950140343113723e-01
2.625000000000000000e+00 6.498135302052221451e-01 2.215959428553296862e-01
2.775000000000444444e+00 6.892845759013803697e-01 2.216979901191059865e-01
2.924999999999512212e+00 7.156433965283289789e-01 2.210084892392600309e-01
3.075000000000499334e+00 7.590667623635088956e-01 2.225409071636143821e-01
3.224999999999414779e+00 7.910791788834008464e-01 2.193982153077731201e-01
3.375000000000000000e+00 8.276486937905910279e-01 2.178444905506901896e-01
3.525000000000659384e+00 8.595566369248678340e-01 2.183476550049732179e-01
3.674999999999857714e+00 8.948694683700429975e-01 2.160618181923185666e-01
3.825000000000022382e+00 9.226000267534056887e-01 2.159486329064246035e-01
3.974999999999250466e+00 9.523762984611373605e-01 2.159043450571621336e-01
4.125000000000000000e+00 9.822346584456489449e-01 2.154169800556683667e-01
4.275000000000798828e+00 1.003076775325499437e+00 2.151585993587668832e-01
4.425000000000374634e+00 1.021997400646036169e+00 2.142946975942235377e-01
4.574999999999541878e+00 1.043270577512683150e+00 2.136632546120112164e-01
4.724999999999138112e+00 1.054430774000194804e+00 2.082108003526474682e-01
4.875000000000000000e+00 1.066825641093994026e+00 2.101504733808305103e-01
5.025000000000897415e+00 1.071265808119467255e+00 2.053166784037823156e-01
5.175000000000743228e+00 1.077455011161586373e+00 2.039071546711004601e-01
5.324999999999196376e+00 1.082968210238354434e+00 2.014755031986525668e-01
5.474999999999057287e+00 1.082432384348211984e+00 2.005168052243478105e-01
5.625000000000000000e+00 1.075719698449888684e+00 1.932054588029663011e-01
5.775000000000969358e+00 1.073114779558031806e+00 1.908094572151839974e-01
5.925000000001017675e+00 1.072466058020691504e+00 1.895454067696832057e-01
6.074999999998936140e+00 1.059639977162701641e+00 1.840875191225732899e-01
6.224999999998995115e+00 1.056141840736719795e+00 1.824170576819130751e-01
6.375000000000000000e+00 1.052267490970476338e+00 1.792470045337420104e-01
6.525000000001025313e+00 1.041994764849644373e+00 1.771548757204368940e-01
6.675000000001229949e+00 1.038304062007181061e+00 1.744574992842864991e-01
6.824999999998733635e+00 1.031068479819033046e+00 1.733686886678132977e-01
6.974999999999387690e+00 1.027244451747312715e+00 1.709459866579765841e-01
7.125000000000000000e+00 1.019391158580390311e+00 1.682826449234879618e-01
7.275000000000346745e+00 1.021774734659607553e+00 1.678086201332475991e-01
7.425000000001398703e+00 1.018205403893568617e+00 1.662913015651174276e-01
7.574999999998571099e+00 1.017927187295682323e+00 1.629384339030259254e-01
7.725000000000012079e+00 1.014450252826972543e+00 1.603376693353278093e-01
7.875000000000000000e+00 1.017080560506306908e+00 1.607008764199230333e-01
8.024999999999771205e+00 1.019207137947002684e+00 1.567125334494696154e-01
8.175000000001539036e+00 1.015425295681581019e+00 1.569458235258458234e-01
8.324999999998437872e+00 1.017636756700134093e+00 1.550976212916913011e-01
8.475000000000525446e+00 1.019039608519598294e+00 1.545359809387624184e-01
8.625000000000000000e+00 1.019468029175474300e+00 1.517933733789544604e-01
8.774999999999291589e+00 1.019157852556302091e+00 1.518883661805941476e-01
8.925000000001652722e+00 1.023095330439159234e+00 1.498375834008577046e-01
9.074999999998325961e+00 1.020224266083685549e+00 1.511130467159973179e-01
9.225000000000957101e+00 1.018535307042534255e+00 1.484500069263353650e-01
9.375000000000000000e+00 1.015974805082588528e+00 1.448288869384621036e-01
9.524999999998890132e+00 1.010670949378506434e+00 1.443085412058538741e-01
9.675000000001750422e+00 1.009867274264273584e+00 1.424854919383050367e-01
9.824999999998231814e+00 1.005268085394143585e+00 1.422259353544796379e-01
9.975000000001321254e+00 1.001120240282809437e+00 1.417645674286928670e-01
1.012500000000000000e+01 9.951744805509421532e-01 1.396305950306511445e-01
1.027499999999854730e+01 9.890696067864021002e-01 1.375237455870348402e-01
1.042500000000183391e+01 9.846416566606357446e-01 1.354279503209498414e-01
1.057499999999815010e+01 9.787694625143378291e-01 1.353087800049263545e-01
1.072500000000163745e+01 9.735325190301419296e-01 1.338732932049608304e-01
1.087500000000000000e+01 9.698449444643377770e-01 1.327979055578527856e-01
1.102499999999824887e+01 9.644285597751197647e-01 1.315878686811798315e-01
1.117500000000190674e+01 9.627413141971650212e-01 1.307077608529517154e-01
1.132499999999808082e+01 9.582569022869587005e-01 1.282767181901666442e-01
1.147500000000190923e+01 9.563394150409491035e-01 1.298815935839665314e-01
1.162500000000000000e+01 9.591644799461620519e-01 1.282864985562477689e-01
1.177499999999798952e+01 9.596907981123947717e-01 1.265697473789954564e-01
1.192500000000196891e+01 9.617235954658672759e-01 1.265978199867585086e-01
1.207499999999801865e+01 9.642936156066934661e-01 1.244027411291368790e-01
1.222500000000215081e+01 9.670307676474162450e-01 1.236010934690676827e-01
1.237500000000000000e+01 9.704369877883392004e-01 1.246018905175711039e-01
1.252499999999776215e+01 9.754400632857027631e-01 1.231264025533005402e-01
1.267500000000202398e+01 9.767048184626025975e-01 1.231234465863141198e-01
1.282499999999796536e+01 9.839689191169502802e-01 1.233845063335932968e-01
1.297500000000236220e+01 9.898167857306972017e-01 1.226590078183835836e-01
1.312500000000000000e+01 9.911320794461566663e-01 1.225106755490662364e-01
1.327499999999756142e+01 9.987187053811752424e-01 1.225685955882107048e-01
1.342500000000173088e+01 1.000996820987432478e+00 1.213731214376912726e-01
1.357499999999841833e+01 1.004215820553180150e+00 1.224341755053007519e-01
1.372500000000255049e+01 1.006701998068309845e+00 1.210868695657881799e-01
1.387500000000000000e+01 1.011189426717454820e+00 1.202494649267568105e-01
1.402499999999738023e+01 1.011775381034724530e+00 1.194674453364367311e-01
1.417500000000102034e+01 1.010851232602080874e+00 1.199127677147716203e-01
1.432499999999911111e+01 1.010323610892122081e+00 1.187981540423766608e-01
1.447500000000271925e+01 1.010501091683990493e+00 1.187391630913817164e-01
1.462500000000000000e+01 1.009395447336452589e+00 1.172475768861712814e-01
1.477499999999721680e+01 1.008886048065372298e+00 1.158817870954286372e-01
1.492500000000038618e+01 1.006076993244800377e+00 1.155605950844721258e-01
1.507499999999973639e+01 1.003004548047460087e+00 1.152166499707543007e-01
1.522500000000287201e+01 1.001934741780336369e+00 1.153018729248653090e-01
1.537500000000000000e+01 9.988230374388233912e-01 1.132809870414917403e-01
1.552499999999706937e+01 9.953367283166031365e-01 1.127006362915856652e-01
1.567499999999980886e+01 9.943509518546391757e-01 1.108075509123915697e-01
1.582500000000029772e+01 9.927208303474763795e-01 1.096334700310940269e-01
1.597500000000300879e+01 9.913222839481967696e-01 1.098025795214303685e-01
1.612500000000000000e+01 9.900593876650647385e-01 1.098362570042467207e-01
1.627499999999693969e+01 9.871616799220583882e-01 1.096541746377615034e-01
1.642499999999928662e+01 9.865456445685044651e-01 1.080833407943088964e-01
1.657500000000081286e+01 9.880063135755593473e-01 1.091265630782901341e-01
1.672500000000313847e+01 9.881747581816351378e-01 1.065836853996054850e-01
1.687500000000000000e+01 9.908922982442975869e-01 1.064300780034199978e-01
1.702499999999681535e+01 9.915348744093626099e-01 1.076856615308908610e-01
1.717499999999880700e+01 9.921093558039223437e-01 1.075469295865359443e-01
1.732500000000128182e+01 9.942782350568927230e-01 1.051718802019233623e-01
1.747500000000325215e+01 9.964336808692760838e-01 1.057756683912893653e-01
1.762500000000000000e+01 9.966052742776396745e-01 1.040493030709983419e-01
1.777499999999670521e+01 1.000739546830530680e+00 1.052602103245679765e-01
1.792499999999837357e+01 1.002528949033054895e+00 1.048235838053391822e-01
1.807500000000171170e+01 1.002436204397993746e+00 1.052913790246192693e-01
1.822500000000335874e+01 1.003479473570489056e+00 1.029334710089286758e-01
1.837500000000000000e+01 1.006012803133302880e+00 1.060599422938542091e-01
1.852499999999660218e+01 1.005433309364842209e+00 1.034501592011937421e-01
1.867499999999797211e+01 1.003737899605614547e+00 1.025476001621555694e-01
1.882500000000210960e+01 1.003195734580861309e+00 1.034094484583411300e-01
1.897500000000345466e+01 1.003265383396812149e+00 1.032152491369517505e-01
1.912500000000000000e+01 1.003464971327709954e+00 1.022683632115753694e-01
1.927499999999650626e+01 1.002663176980075121e+00 1.024033946670963313e-01
1.942499999999759908e+01 1.001091590695834199e+00 1.018236831092905886e-01
1.957500000000247198e+01 1.000073400289593462e+00 9.902405630683225324e-02
1.972500000000354348e+01 9.971867531754412539e-01 1.006188279177035322e-01
1.987500000000000000e+01 9.985465355667190179e-01 9.961411800687140772e-02
2.002499999999642100e+01 9.972674248531453456e-01 9.992914430444976848e-02
2.017499999999725446e+01 9.914356655450887734e-01 9.849945158654946353e-02
2.032500000000281304e+01 9.921506399116691854e-01 9.821842095408844786e-02
2.047500000000362874e+01 9.924897982358823478e-01 9.831325637454163546e-02
2.062500000000000000e+01 9.907245068604363381e-01 9.637692937858648168e-02
2.077499999999633928e+01 9.879773369593846111e-01 9.648262885509645281e-02
2.092499999999693472e+01 9.867355975008059721e-01 9.506315871692587460e-02
2.107500000000312212e+01 9.887589828266862835e-01 9.635004427332360954e-02
2.122500000000370690e+01 9.895585305324153813e-01 9.604660679754707664e-02
2.137500000000000000e+01 9.918567485571483378e-01 9.652249989486355597e-02
2.152499999999626468e+01 9.925804159958674378e-01 9.696495077707933952e-02
2.167499999999663984e+01 9.912510484202141647e-01 9.507820747395692718e-02
2.182500000000341700e+01 9.922305027829469992e-01 9.498527696730599268e-02
2.197500000000377796e+01 9.940011112004715210e-01 9.364344153964959672e-02
2.212500000000000000e+01 9.949152134340427667e-01 9.476782961570880126e-02
2.227499999999619718e+01 9.959794424077642594e-01 9.376845075659975826e-02
2.242499999999636273e+01 9.997587828228802209e-01 9.382104383061901087e-02
2.257500000000369056e+01 1.000287240688286339e+00 9.427554942619024991e-02
2.272500000000384546e+01 1.001053251539322231e+00 9.251569790223913847e-02
2.287500000000000000e+01 1.001023571275725610e+00 9.381736489062325601e-02
2.302499999999612967e+01 1.003612931416904885e+00 9.377338246997828086e-02
2.317499999999610338e+01 1.003410905116602247e+00 9.282994329851627924e-02
2.332500000000394635e+01 1.003126631542718306e+00 9.110447732466860071e-02
2.347500000000390941e+01 1.004332952289987091e+00 9.219182063975490948e-02
2.362500000000000000e+01 1.004822000990857056e+00 9.201829168562598860e-02
2.377499999999606928e+01 1.005577432880194744e+00 9.299029216974358247e-02
2.392499999999586180e+01 1.006561273490687025e+00 9.142057542782744406e-02
2.407500000000418439e+01 1.003512841254865062e+00 9.131335250873633125e-02
2.422500000000396625e+01 1.003808289068787829e+00 9.004316676207041459e-02
2.437500000000000000e+01 1.003114813962519447e+00 9.029564832467515401e-02
2.452499999999600888e+01 1.002647421007910156e+00 9.088155435005584870e-02
2.467499999999563087e+01 1.000843219035219001e+00 8.890763160309102242e-02
2.482500000000441176e+01 1.001535332400571576e+00 8.975639453009563729e-02
2.497500000000402309e+01 9.985714048163913947e-01 8.914746729074696230e-02
2.512500000000000000e+01 9.948413881785455049e-01 8.882084763485995071e-02
2.527499999999595559e+01 9.969589593640953984e-01 8.758739664169898353e-02
2.542499999999541771e+01 9.941593442171818840e-01 8.875216665980335817e-02
2.557500000000462137e+01 9.968725245256213618e-01 8.714783292495288658e-02
2.572500000000407638e+01 9.943830611038464440e-01 8.779725841525760910e-02
2.587500000000000000e+01 9.953630975580733953e-01 8.695733405202930866e-02
2.602499999999590585e+01 9.956548945301328946e-01 8.742937012750350012e-02
2.617499999999521521e+01 9.950640113391620023e-01 8.607001278719306203e-02
2.632500000000482032e+01 9.970265585925419671e-01 8.742421961564157684e-02
2.647500000000383480e+01 9.956748045142813641e-01 8.752607067888568126e-02
2.662500000000000000e+01 9.981702062899023842e-01 8.591365540959410019e-02
2.677499999999647073e+01 9.976594565602918685e-01 8.566816231156783312e-02
2.692499999999502691e+01 1.000513875828140886e+00 8.568082110376415428e-02
2.707500000000501217e+01 9.989119230940376459e-01 8.647764303569825672e-02
2.722500000000308873e+01 9.988462319026603087e-01 8.529603419007880660e-02
2.737500000000000000e+01 1.000193911685273829e+00 8.465148130995435449e-02
2.752499999999719549e+01 9.991998095714689221e-01 8.458203364940754254e-02
2.767499999999484928e+01 1.000627613868649179e+00 8.474387169072712667e-02
2.782500000000518625e+01 1.001540467739903351e+00 8.459692050786730977e-02
2.797500000000238529e+01 1.002011219756988814e+00 8.406021721444459360e-02
2.812500000000000000e+01 1.002831339826220969e+00 8.333404541471245430e-02
2.827499999999788827e+01 1.001456421097868477e+00 8.318616891618597908e-02
2.842499999999467164e+01 1.003043714978156586e+00 8.356248590697715195e-02
2.857500000000536033e+01 1.000138513343963087e+00 8.200875820018160844e-02
2.872500000000171028e+01 1.000510802876440897e+00 8.356580795069586121e-02
2.887500000000000000e+01 1.000366635207312616e+00 8.303216979627686678e-02
2.902499999999854552e+01 9.988098658195742052e-01 8.180224852292616866e-02
2.917499999999451177e+01 1.000776015936412078e+00 8.188785418239982739e-02
2.932500000000552021e+01 9.982356477420601948e-01 8.163445501676926119e-02
2.947500000000107434e+01 9.963245009512010641e-01 8.148166356911849817e-02
2.962500000000000000e+01 9.976713546466312588e-01 8.154697079197315013e-02
2.977499999999917080e+01 9.965005604893447666e-01 8.141886941004240763e-02
2.992499999999435900e+01 9.963360144431117060e-01 8.097127406491069768e-02
3.007500000000566942e+01 9.977766125461569047e-01 8.065110141342908545e-02
3.022500000000047393e+01 9.970447598458550553e-01 8.054344502945803841e-02
3.037500000000000000e+01 9.969739251063196583e-01 8.188209544302646470e-02
3.052499999999976410e+01 9.970275264932025872e-01 7.955969433160299531e-02
3.067499999999420623e+01 9.976632552872397586e-01 8.057268121664383498e-02
3.082500000000581508e+01 9.965607473905145897e-01 7.979627121081610264e-02
3.097499999999989839e+01 9.967186736839653838e-01 8.004051829526369344e-02
3.112500000000000000e+01 9.961929770904062176e-01 7.989572151386466203e-02
3.127500000000032898e+01 9.991855384407735130e-01 7.968684684007769359e-02
3.142499999999406768e+01 9.987384539955378449e-01 7.950938226840241485e-02
3.157500000000595364e+01 9.986586988732841785e-01 7.900058991608381598e-02
3.172499999999935127e+01 1.002162186451033943e+00 7.860217077759670823e-02
3.187500000000000000e+01 1.002165035384369851e+00 7.894032547387339060e-02
3.202500000000086544e+01 9.999977438042260136e-01 7.914273364243144815e-02
3.217499999999394333e+01 1.001868905931510012e+00 7.846240822549788163e-02
3.232500000000609219e+01 1.001375109464526680e+00 7.755725331083311580e-02
3.247499999999882903e+01 1.003492731771915558e+00 7.811139494246427395e-02
3.262500000000000000e+01 1.001668566103339320e+00 7.871372838759709001e-02
3.277500000000137703e+01 1.003860823669502134e+00 7.786013715275487412e-02
3.292499999999381544e+01 1.002532109609481470e+00 7.799223104137904816e-02
3.307500000000621299e+01 1.005149968457437648e+00 7.762407209259675200e-02
3.322499999999832454e+01 1.005061105065550464e+00 7.668019630592499969e-02
3.337500000000000000e+01 1.001962850799966942e+00 7.769678932654594528e-02
3.352500000000186731e+01 1.004622745195578704e+00 7.706537558862906756e-02
3.367499999999368754e+01 1.002524776606460222e+00 7.708951174516028015e-02
3.382500000000633378e+01 1.003711374741775852e+00 7.588834955828885342e-02
3.397499999999784848e+01 1.003303673508798566e+00 7.661928589214886398e-02
3.412500000000000000e+01 1.002414088378976942e+00 7.661410137264915154e-02
3.427500000000233626e+01 1.003559076175696285e+00 7.576700248694841211e-02
3.442499999999357385e+01 1.003150508934141927e+00 7.545255467725073273e-02
3.457500000000644746e+01 1.002899732228500929e+00 7.618906729999974647e-02
3.472499999999739373e+01 1.001220432436720653e+00 7.555031290566187330e-02
3.487500000000000000e+01 1.002495953587399624e+00 7.488570149261727926e-02
3.502500000000278391e+01 1.001974027985909732e+00 7.508228766910615692e-02
3.517499999999346016e+01 1.002481151818569893e+00 7.507071808293402926e-02
3.532500000000656115e+01 1.002127195889717548e+00 7.434633194579882975e-02
3.547499999999695319e+01 1.000506287594571164e+00 7.484478812608363896e-02
3.562500000000000000e+01 1.001452017207363099e+00 7.403955483416155281e-02
3.577500000000321734e+01 1.000768756865767939e+00 7.458572801026751298e-02
3.592499999999336069e+01 1.003491600296490871e+00 7.431747944594979671e-02
3.607500000000666773e+01 1.001603063749663125e+00 7.343292140634130605e-02
3.622499999999653397e+01 1.002584046951567442e+00 7.325699639923770323e-02
3.637500000000000000e+01 1.002351981558754490e+00 7.325610044995617409e-02
3.652500000000362235e+01 1.004008379792408645e+00 7.393368827078465599e-02
3.667499999999325411e+01 1.003197862368494953e+00 7.470681228473784186e-02
3.682500000000676721e+01 1.004947677557266328e+00 7.354072759020277572e-02
3.697499999999613607e+01 1.003290435413216164e+00 7.354428344904265225e-02
3.712500000000000000e+01 1.004468674759472435e+00 7.386442271452514641e-02
3.727500000000402736e+01 1.003157869491239973e+00 7.348883074741727195e-02
3.742499999999315463e+01 1.005277557494401064e+00 7.206443740486642713e-02
3.757500000000686668e+01 1.004040331439905120e+00 7.345847902812896457e-02
3.772499999999575238e+01 1.005464835708423044e+00 7.172893505934974101e-02
3.787500000000000000e+01 1.004552543794556163e+00 7.249792312762673441e-02
3.802500000000440394e+01 1.004878451082282576e+00 7.204877189847597174e-02
3.817499999999306226e+01 1.003096509030513062e+00 7.216112725490950175e-02
3.832500000000695906e+01 1.002927883312350055e+00 7.143142602345822767e-02
3.847499999999537579e+01 1.003655517263817964e+00 7.186419596166364332e-02
3.862500000000000000e+01 1.001763103428926049e+00 7.120396402365523902e-02
3.877500000000476632e+01 1.002822828338836736e+00 7.101595168322677454e-02
3.892499999999297700e+01 1.002172397760837441e+00 7.154918444637282937e-02
3.907500000000705143e+01 1.002628907754801846e+00 7.225097495788126989e-02
3.922499999999502052e+01 1.001760404981090424e+00 7.132508062832874918e-02
3.937500000000000000e+01 1.001101029336525672e+00 7.205585518315318905e-02
3.952500000000512159e+01 1.002248113172011124e+00 7.011330798855916480e-02
3.967499999999288463e+01 1.001771252424276337e+00 6.971716690255048976e-02
3.982500000000712959e+01 1.002272806069965494e+00 7.107475603924061358e-02
