# Radius RDF_mean RDF_std
7.500000000000896228e-02 2.181203668413502980e-02 2.413847747208225647e-01
2.249999999999577616e-01 2.531174965602887850e-02 1.507464075632669043e-01
3.750000000000000000e-01 2.703661041837007381e-02 1.212530765940286054e-01
5.249999999999700462e-01 3.031200232587109855e-02 1.082574727371344303e-01
6.750000000001169509e-01 3.138384583604390127e-02 9.634825444230914193e-02
8.249999999998777200e-01 3.713429440944580884e-02 9.565802699930421593e-02
9.750000000001839418e-01 4.169508391402941549e-02 9.364599365931526587e-02
1.125000000000000000e+00 5.045921982735313005e-02 9.463222777666602248e-02
1.274999999999773648e+00 5.851016765581806833e-02 9.545450536151521559e-02
1.424999999999764455e+00 6.986836748775893113e-02 9.914759451813494329e-02
1.575000000000282396e+00 8.443650520474901833e-02 1.048328205627570703e-01
1.725000000000170397e+00 1.010793449475855810e-01 1.089648196408910946e-01
1.875000000000000000e+00 1.224965925808677025e-01 1.140788142937184668e-01
2.025000000000070521e+00 1.511487220208312110e-01 1.217866493605083977e-01
2.174999999999594813e+00 1.785422736140692690e-01 1.294913905879773175e-01
2.325000000000426059e+00 2.165755302922907910e-01 1.366119064320203136e-01
2.474999999999678124e+00 2.613005260728663570e-01 1.470303786402665236e-01
2.625000000000000000e+00 3.114165434887091188e-01 1.547150294795653636e-01
2.775000000000444444e+00 3.712628331517552893e-01 1.644370336376804465e-01
2.924999999999512212e+00 4.358878671424883944e-01 1.729373779032841174e-01
3.075000000000499334e+00 5.153817336491428591e-01 1.837270491555762497e-01
3.224999999999414779e+00 5.965884989667544769e-01 1.932547322322599181e-01
3.375000000000000000e+00 6.882093682389925915e-01 2.002983463547628462e-01
3.525000000000659384e+00 7.870826973195482745e-01 2.085111678388864298e-01
3.674999999999857714e+00 8.904257073306030001e-01 2.140866776851949593e-01
3.825000000000022382e+00 9.819935128772068200e-01 2.230772451174183879e-01
3.974999999999250466e+00 1.079272297917089229e+00 2.286787372452390443e-01
4.125000000000000000e+00 1.150579003908001940e+00 2.309218045343939818e-01
4.275000000000798828e+00 1.221344879622560997e+00 2.348436009264849855e-01
4.425000000000374634e+00 1.264398166302611370e+00 2.387779472072663334e-01
4.574999999999541878e+00 1.296927250953280319e+00 2.334358630864873940e-01
4.724999999999138112e+00 1.308249408338884701e+00 2.322635359055202353e-01
4.875000000000000000e+00 1.303782073735932912e+00 2.306752581909045641e-01
5.025000000000897415e+00 1.298489557052364241e+00 2.256707645528351347e-01
5.175000000000743228e+00 1.279367194371041405e+00 2.222509282981389722e-01
5.324999999999196376e+00 1.261174327972708342e+00 2.182881363475081826e-01
5.474999999999057287e+00 1.238088504933511524e+00 2.143944152829564687e-01
5.625000000000000000e+00 1.218531103074073529e+00 2.091711256998944335e-01
5.775000000000969358e+00 1.193378858460053094e+00 2.016411982851248341e-01
5.925000000001017675e+00 1.169841162618704855e+00 1.968830443408517150e-01
6.074999999998936140e+00 1.147031925941604857e+00 1.960329918084565692e-01
6.224999999998995115e+00 1.120804078822592365e+00 1.871872021142486631e-01
6.375000000000000000e+00 1.093963475553914266e+00 1.834941676572664770e-01
6.525000000001025313e+00 1.070622552354316470e+00 1.770338517248362387e-01
6.675000000001229949e+00 1.048113255662666665e+00 1.749839949393957594e-01
6.824999999998733635e+00 1.028226340385866688e+00 1.724874674706495525e-01
6.974999999999387690e+00 1.008775406491041693e+00 1.666945670359104847e-01
7.125000000000000000e+00 9.987435186419711952e-01 1.648502534626465066e-01
7.275000000000346745e+00 9.888819765166539932e-01 1.636125250796282293e-01
7.425000000001398703e+00 9.841121238124029835e-01 1.623325635940499612e-01
7.574999999998571099e+00 9.784157009535062732e-01 1.614559397865602264e-01
7.725000000000012079e+00 9.764582769610700153e-01 1.590757484688649914e-01
7.875000000000000000e+00 9.768156556210985109e-01 1.566439355100406050e-01
8.024999999999771205e+00 9.789723975627790953e-01 1.569472891679011550e-01
8.175000000001539036e+00 9.802961083635935990e-01 1.548724903106708239e-01
8.324999999998437872e+00 9.869843790431460651e-01 1.544347299251286887e-01
8.475000000000525446e+00 9.929282991318981733e-01 1.525821848809078007e-01
8.625000000000000000e+00 1.000512384808226463e+00 1.508623577531530702e-01
8.774999999999291589e+00 1.010181402402144046e+00 1.509012459840302633e-01
8.925000000001652722e+00 1.016319973051301728e+00 1.492077429773089603e-01
9.074999999998325961e+00 1.018072604158926753e+00 1.496299682881141457e-01
9.225000000000957101e+00 1.021468656935606623e+00 1.484938511602707789e-01
9.375000000000000000e+00 1.024373170602496552e+00 1.481454970792902559e-01
9.524999999998890132e+00 1.017597108276782958e+00 1.464922053518655232e-01
9.675000000001750422e+00 1.018243819081937618e+00 1.467751529690281276e-01
9.824999999998231814e+00 1.009147540147438349e+00 1.425531645466594499e-01
9.975000000001321254e+00 1.006495540527557964e+00 1.404788887458407465e-01
1.012500000000000000e+01 9.963149251600196266e-01 1.406660899290345379e-01
1.027499999999854730e+01 9.896982137461688422e-01 1.380957070089529060e-01
1.042500000000183391e+01 9.786723418371853223e-01 1.343566522563398868e-01
1.057499999999815010e+01 9.770051139881269497e-01 1.353881662464284930e-01
1.072500000000163745e+01 9.671156126605434666e-01 1.329298889351956670e-01
1.087500000000000000e+01 9.654393480606816569e-01 1.331098190988321273e-01
1.102499999999824887e+01 9.522797341073712118e-01 1.316415266568056464e-01
1.117500000000190674e+01 9.492182443867469566e-01 1.302305917539489655e-01
1.132499999999808082e+01 9.459389325407462357e-01 1.307134402729577816e-01
1.147500000000190923e+01 9.436113779965492609e-01 1.268824241478811732e-01
1.162500000000000000e+01 9.397875092190088875e-01 1.266602033520937975e-01
1.177499999999798952e+01 9.427943163082427303e-01 1.261358958079172865e-01
1.192500000000196891e+01 9.441306416900970833e-01 1.247514673378290473e-01
1.207499999999801865e+01 9.476590892087080054e-01 1.243489834769497399e-01
1.222500000000215081e+01 9.501597289288942205e-01 1.240135682313408677e-01
1.237500000000000000e+01 9.572258057121239005e-01 1.250403518896658350e-01
1.252499999999776215e+01 9.618266680924674183e-01 1.234494442990201196e-01
1.267500000000202398e+01 9.712461994306059720e-01 1.236062130721392871e-01
1.282499999999796536e+01 9.777016932622493162e-01 1.233538211826902126e-01
1.297500000000236220e+01 9.828850756733737981e-01 1.213652854065104952e-01
1.312500000000000000e+01 9.888712719742421831e-01 1.214558333830437764e-01
1.327499999999756142e+01 9.974176609883418365e-01 1.208781636324856162e-01
1.342500000000173088e+01 1.001118387672642163e+00 1.210575175421609723e-01
1.357499999999841833e+01 1.008188780205509394e+00 1.204701313944793878e-01
1.372500000000255049e+01 1.012789880705258883e+00 1.217785073344472418e-01
1.387500000000000000e+01 1.019016972436080248e+00 1.211084136048253546e-01
1.402499999999738023e+01 1.020640348395988495e+00 1.206725203586415940e-01
1.417500000000102034e+01 1.024711745595226819e+00 1.194870874229471136e-01
1.432499999999911111e+01 1.026279441533766379e+00 1.198355045953910375e-01
1.447500000000271925e+01 1.028748114832177318e+00 1.203135971345079824e-01
1.462500000000000000e+01 1.028288093391371172e+00 1.184443985377660741e-01
1.477499999999721680e+01 1.029517213856283808e+00 1.175136604399177470e-01
1.492500000000038618e+01 1.027750458696659708e+00 1.163854016451145862e-01
1.507499999999973639e+01 1.024872870847907791e+00 1.156294240636932952e-01
1.522500000000287201e+01 1.019088823337903404e+00 1.160980614668721544e-01
1.537500000000000000e+01 1.015424462282997098e+00 1.130465954913906917e-01
1.552499999999706937e+01 1.010654776172198233e+00 1.138601895999769992e-01
1.567499999999980886e+01 1.003114287270948424e+00 1.128822508458354884e-01
1.582500000000029772e+01 1.000005600116610216e+00 1.118288445924360830e-01
1.597500000000300879e+01 9.914786033592981607e-01 1.096543029918493201e-01
1.612500000000000000e+01 9.888435991999463548e-01 1.097338780276432696e-01
1.627499999999693969e+01 9.807188931258108422e-01 1.091434313512925081e-01
1.642499999999928662e+01 9.793887907795665315e-01 1.093815959231299734e-01
1.657500000000081286e+01 9.776255256124950499e-01 1.079712814063086279e-01
1.672500000000313847e+01 9.754626151524475874e-01 1.070108017136368189e-01
1.687500000000000000e+01 9.767201372114016067e-01 1.072054737764757265e-01
1.702499999999681535e+01 9.762747029724145875e-01 1.059533782627318649e-01
1.717499999999880700e+01 9.774270367927203607e-01 1.070209294560169888e-01
1.732500000000128182e+01 9.801266524911346201e-01 1.064718147021875005e-01
1.747500000000325215e+01 9.868093698392179647e-01 1.048145989778629661e-01
1.762500000000000000e+01 9.884538313290144318e-01 1.053850376247012777e-01
1.777499999999670521e+01 9.909082618575623114e-01 1.041037642534321100e-01
1.792499999999837357e+01 9.935459180966790260e-01 1.061289767507260645e-01
1.807500000000171170e+01 9.976092799122581178e-01 1.050047382337280649e-01
1.822500000000335874e+01 9.982790498943635571e-01 1.048141172790569703e-01
1.837500000000000000e+01 1.004509158714153028e+00 1.040490618252461752e-01
1.852499999999660218e+01 1.006042669029789227e+00 1.034465495396450357e-01
1.867499999999797211e+01 1.007997297761159539e+00 1.042854294897719858e-01
1.882500000000210960e+01 1.009120730264965626e+00 1.030346097478274242e-01
1.897500000000345466e+01 1.009641886135940414e+00 1.006277840653400923e-01
1.912500000000000000e+01 1.010924700683531574e+00 1.024120775875154293e-01
1.927499999999650626e+01 1.008203453912693393e+00 1.000822360456480042e-01
1.942499999999759908e+01 1.008507894560509932e+00 1.012696271252407632e-01
1.957500000000247198e+01 1.008916841785686414e+00 1.008831274584091886e-01
1.972500000000354348e+01 1.007597765654471234e+00 1.003243071781123041e-01
1.987500000000000000e+01 1.004235959843542636e+00 9.898254371117423678e-02
2.002499999999642100e+01 1.002599736316800660e+00 9.899643987787887234e-02
2.017499999999725446e+01 9.983155921297087732e-01 9.857702815010209452e-02
2.032500000000281304e+01 9.956241217279302447e-01 9.781905404442509111e-02
2.047500000000362874e+01 9.938566169630409508e-01 9.711777938858359716e-02
2.062500000000000000e+01 9.893611602449992048e-01 9.846005950461389489e-02
2.077499999999633928e+01 9.869640015842167102e-01 9.731725182703741817e-02
2.092499999999693472e+01 9.843639885429735781e-01 9.595448896750576051e-02
2.107500000000312212e+01 9.854818142918373436e-01 9.632227256234643376e-02
2.122500000000370690e+01 9.824414245360323372e-01 9.632223689145590073e-02
2.137500000000000000e+01 9.826724367281960415e-01 9.505951522894406924e-02
2.152499999999626468e+01 9.823944008281746409e-01 9.392429623875485356e-02
2.167499999999663984e+01 9.842464716240858502e-01 9.513051827061987098e-02
2.182500000000341700e+01 9.853931345888130577e-01 9.336205405598568818e-02
2.197500000000377796e+01 9.874850618756971787e-01 9.465099773065939470e-02
2.212500000000000000e+01 9.909934707776492102e-01 9.435576772406108204e-02
2.227499999999619718e+01 9.909540237778554639e-01 9.473471372673417101e-02
2.242499999999636273e+01 9.932871264924487686e-01 9.324856693770920690e-02
2.257500000000369056e+01 9.960997681024266193e-01 9.308848712305495265e-02
2.272500000000384546e+01 9.992446401881932561e-01 9.338057858450334037e-02
2.287500000000000000e+01 1.001604957514102612e+00 9.280758858017973401e-02
2.302499999999612967e+01 1.002338958642053024e+00 9.257025014633821214e-02
2.317499999999610338e+01 1.007462498807012663e+00 9.192301647282587196e-02
2.332500000000394635e+01 1.008275021138427929e+00 9.311753250405564730e-02
2.347500000000390941e+01 1.009136779537290307e+00 9.205139521380625856e-02
2.362500000000000000e+01 1.010799045221608017e+00 9.127650795266575856e-02
2.377499999999606928e+01 1.011495133744345409e+00 9.149053603131808432e-02
2.392499999999586180e+01 1.010465170600292506e+00 9.096169776159925002e-02
2.407500000000418439e+01 1.010260281193039456e+00 9.193050100777026834e-02
2.422500000000396625e+01 1.010865936345416216e+00 9.065617147581116197e-02
2.437500000000000000e+01 1.009104155532440483e+00 8.946482343377877566e-02
2.452499999999600888e+01 1.008932653652926392e+00 8.989819009601374145e-02
2.467499999999563087e+01 1.006491537385614032e+00 8.964434553129121963e-02
2.482500000000441176e+01 1.002788056930298932e+00 9.007455412175581488e-02
2.497500000000402309e+01 1.002577388270092351e+00 8.845327578258316281e-02
2.512500000000000000e+01 9.989423584874728146e-01 8.870111491267407278e-02
2.527499999999595559e+01 9.998332398197190551e-01 8.803909615866983840e-02
2.542499999999541771e+01 9.957308223855141360e-01 8.750221028446225624e-02
2.557500000000462137e+01 9.970082375710548339e-01 8.740327783790748095e-02
2.572500000000407638e+01 9.914012196246750896e-01 8.812618389402634977e-02
2.587500000000000000e+01 9.930094499111429274e-01 8.731469774423891717e-02
2.602499999999590585e+01 9.924906278093434953e-01 8.691227084255664925e-02
2.617499999999521521e+01 9.916141136789251576e-01 8.713833002604264022e-02
2.632500000000482032e+01 9.930661837785846879e-01 8.726310860009747761e-02
2.647500000000383480e+01 9.913998353678843412e-01 8.631929334550188238e-02
2.662500000000000000e+01 9.927889709404769114e-01 8.631187958078979927e-02
2.677499999999647073e+01 9.939679708608211151e-01 8.631320478199908108e-02
2.692499999999502691e+01 9.952791792491423317e-01 8.592176328648681860e-02
2.707500000000501217e+01 9.948269008343540998e-01 8.509283419204938248e-02
2.722500000000308873e+01 9.962634675761331549e-01 8.462168695102149918e-02
2.737500000000000000e+01 9.979990070659984225e-01 8.434169815656712699e-02
2.752499999999719549e+01 9.999441757484828219e-01 8.539804818813433174e-02
2.767499999999484928e+01 9.987944787580309569e-01 8.374571165546809692e-02
2.782500000000518625e+01 9.997545028876015927e-01 8.490054993181685161e-02
2.797500000000238529e+01 1.000442432287243166e+00 8.476260852131070611e-02
2.812500000000000000e+01 1.000891434783244272e+00 8.423836800047641848e-02
2.827499999999788827e+01 1.001912860313224130e+00 8.293173664045792870e-02
2.842499999999467164e+01 1.003284887982957230e+00 8.297319045862215636e-02
2.857500000000536033e+01 1.002124948523013037e+00 8.326043629345622477e-02
2.872500000000171028e+01 1.002991284086906409e+00 8.314645465151912496e-02
2.887500000000000000e+01 1.001362110176813980e+00 8.341685542345166071e-02
2.902499999999854552e+01 1.001497430542631850e+00 8.388757535162695567e-02
2.917499999999451177e+01 1.000811912373322565e+00 8.199411923875697672e-02
2.932500000000552021e+01 9.976918256054116974e-01 8.229452132484792182e-02
2.947500000000107434e+01 9.985148137457233730e-01 8.156812730042163617e-02
2.962500000000000000e+01 9.971428846386748424e-01 8.099108544231849172e-02
2.977499999999917080e+01 9.977142232919414822e-01 8.186011901819810477e-02
2.992499999999435900e+01 9.961937040283771472e-01 8.049289551991832548e-02
3.007500000000566942e+01 9.960290591707835484e-01 8.099127852233915792e-02
3.022500000000047393e+01 9.946209492762403404e-01 8.093666890762470090e-02
3.037500000000000000e+01 9.947896934811680802e-01 8.052516275915107269e-02
3.052499999999976410e+01 9.962483214439875612e-01 8.029112807472808810e-02
3.067499999999420623e+01 9.946859525227474963e-01 7.999456169627233715e-02
3.082500000000581508e+01 9.949881020256847730e-01 7.995974962911982231e-02
3.097499999999989839e+01 9.952212536360429684e-01 8.095208671188325322e-02
3.112500000000000000e+01 9.965313429279814006e-01 7.914477739687669766e-02
3.127500000000032898e+01 9.958436707167692692e-01 7.947162803863871972e-02
3.142499999999406768e+01 9.971736174245762196e-01 7.942165530007125329e-02
3.157500000000595364e+01 9.969662506830146986e-01 7.890546312657459316e-02
3.172499999999935127e+01 9.989225842541855638e-01 7.824846112866594428e-02
3.187500000000000000e+01 9.985328309054998241e-01 7.869409536781897530e-02
3.202500000000086544e+01 9.999362322745267706e-01 7.784268163120852679e-02
3.217499999999394333e+01 1.000655770670395350e+00 7.806438727093685526e-02
3.232500000000609219e+01 1.000848391994178632e+00 7.878921210429419564e-02
3.247499999999882903e+01 1.004564994561118807e+00 7.863413561779458716e-02
3.262500000000000000e+01 1.005617018074463243e+00 7.707284236645309261e-02
3.277500000000137703e+01 1.004409944584420566e+00 7.858112389757761218e-02
3.292499999999381544e+01 1.003712145183278670e+00 7.835916033021089744e-02
3.307500000000621299e+01 1.005196532681436938e+00 7.717860407826325486e-02
3.322499999999832454e+01 1.005266044894576272e+00 7.689610576981081858e-02
3.337500000000000000e+01 1.005197311456099252e+00 7.784472635607413149e-02
3.352500000000186731e+01 1.006808329824015358e+00 7.765962919434896139e-02
3.367499999999368754e+01 1.006135341331189759e+00 7.687168860494741907e-02
3.382500000000633378e+01 1.005729016668959197e+00 7.760254162534377387e-02
3.397499999999784848e+01 1.003847985438925505e+00 7.543074408813875420e-02
3.412500000000000000e+01 1.005179593565028284e+00 7.625691491794123200e-02
3.427500000000233626e+01 1.004142960470024493e+00 7.614871686412018337e-02
3.442499999999357385e+01 1.004727525259619059e+00 7.686247847096490393e-02
3.457500000000644746e+01 1.003027573597333300e+00 7.593304645179507761e-02
3.472499999999739373e+01 1.001828613669854207e+00 7.555157991198550860e-02
3.487500000000000000e+01 1.001746450232050778e+00 7.555832987884374130e-02
3.502500000000278391e+01 1.002016389591823931e+00 7.429339462921216719e-02
3.517499999999346016e+01 1.001761954065491622e+00 7.601614991215648043e-02
3.532500000000656115e+01 1.000464394603788110e+00 7.420084996762221774e-02
3.547499999999695319e+01 1.000655612714236531e+00 7.579542133869265896e-02
3.562500000000000000e+01 9.993086843092436888e-01 7.458694705079019216e-02
3.577500000000321734e+01 1.000441371641473287e+00 7.421904603699493175e-02
3.592499999999336069e+01 1.001964210232413333e+00 7.410046827770673528e-02
3.607500000000666773e+01 1.002638763866601446e+00 7.442570165992423714e-02
3.622499999999653397e+01 1.001195877030678805e+00 7.394288970328544153e-02
3.637500000000000000e+01 1.001573706568881450e+00 7.389666253332473345e-02
3.652500000000362235e+01 1.003354681753717115e+00 7.373299425099895388e-02
3.667499999999325411e+01 1.005704851915205200e+00 7.361438973713310685e-02
3.682500000000676721e+01 1.003713284862216559e+00 7.237151033900655894e-02
3.697499999999613607e+01 1.004595702258245904e+00 7.353249022055600992e-02
3.712500000000000000e+01 1.004941327516835514e+00 7.405849151184618062e-02
3.727500000000402736e+01 1.006257876847964861e+00 7.383075088943452657e-02
3.742499999999315463e+01 1.007603643255106540e+00 7.214164800630967767e-02
3.757500000000686668e+01 1.004979953608904575e+00 7.199346736284767401e-02
3.772499999999575238e+01 1.007575834690321859e+00 7.194886429883823320e-02
3.787500000000000000e+01 1.004566150704744087e+00 7.309296522271044316e-02
3.802500000000440394e+01 1.006897846074265246e+00 7.301072119762826163e-02
3.817499999999306226e+01 1.006190378495368742e+00 7.265931712610745885e-02
3.832500000000695906e+01 1.005558305965694288e+00 7.240701968548128586e-02
3.847499999999537579e+01 1.004386522765105871e+00 7.279286476196032696e-02
3.862500000000000000e+01 1.005799255597930708e+00 7.250596210942340802e-02
3.877500000000476632e+01 1.006165308374110001e+00 7.235633396204803336e-02
3.892499999999297700e+01 1.003016914345511656e+00 7.141698322026197865e-02
3.907500000000705143e+01 1.002472929071572594e+00 7.053087544796993180e-02
3.922499999999502052e+01 1.003570407004578779e+00 7.167465976846858211e-02
3.937500000000000000e+01 1.003967162120811718e+00 7.075227798110575450e-02
3.952500000000512159e+01 1.001468863737853043e+00 7.027128458466547212e-02
3.967499999999288463e+01 1.001953625783074342e+00 6.952074913701643266e-02
3.982500000000712959e+01 1.001727323147236115e+00 6.942238653476140442e-02
