# Radius RDF_mean RDF_std
7.500000000000896228e-02 8.380633131171660952e-04 5.925706210154282894e-02
2.249999999999577616e-01 5.587088754114442803e-04 2.793125313968189763e-02
3.750000000000000000e-01 6.704506504937329412e-04 2.369571221485072821e-02
5.249999999999700462e-01 1.017648308785130398e-03 2.466184368190745685e-02
6.750000000001169509e-01 6.052679483623978800e-04 1.677703719528583770e-02
8.249999999998777200e-01 1.180907395756006445e-03 2.117788446682020154e-02
9.750000000001839418e-01 1.547193808831691603e-03 2.227927746659540478e-02
1.125000000000000000e+00 1.396772188528608424e-03 1.970488660798807440e-02
1.274999999999773648e+00 2.095158282792912961e-03 2.262953522650163959e-02
1.424999999999764455e+00 2.624461427919553332e-03 2.411857029958672932e-02
1.575000000000282396e+00 3.232529922023360484e-03 2.534944998994358503e-02
1.725000000000170397e+00 3.698409838321400304e-03 2.595134117583168185e-02
1.875000000000000000e+00 5.380366470212185302e-03 3.001759821230754258e-02
2.025000000000070521e+00 6.813144341822855755e-03 3.269370160791364166e-02
2.174999999999594813e+00 8.395082498639284269e-03 3.489770835473593458e-02
2.325000000000426059e+00 1.134088902750508311e-02 3.886498267108892679e-02
2.474999999999678124e+00 1.362487780264720789e-02 4.161330446700835933e-02
2.625000000000000000e+00 1.653379193449744031e-02 4.454675551031201525e-02
2.775000000000444444e+00 2.201614973918546506e-02 5.037251096345789908e-02
2.924999999999512212e+00 2.803214338362522429e-02 5.483478096719480305e-02
3.075000000000499334e+00 3.448323924947959557e-02 6.004859660677190625e-02
3.224999999999414779e+00 4.465123372910391464e-02 6.637430576317514264e-02
3.375000000000000000e+00 5.668101541048810310e-02 7.350341231457453717e-02
3.525000000000659384e+00 7.005852674973012117e-02 7.956661636438892848e-02
3.674999999999857714e+00 8.954449950663517788e-02 8.854582358783887053e-02
3.825000000000022382e+00 1.146667803711992895e-01 9.761984268809198451e-02
3.974999999999250466e+00 1.443603588132662818e-01 1.068633962735709431e-01
4.125000000000000000e+00 1.834368217265709977e-01 1.202825322266159319e-01
4.275000000000798828e+00 2.368337517138850989e-01 1.322983184787291933e-01
4.425000000000374634e+00 3.099555856869465331e-01 1.497460881543990208e-01
4.574999999999541878e+00 4.143879614793372634e-01 1.671274545538368184e-01
4.724999999999138112e+00 5.747983607640548831e-01 1.947068391901198570e-01
4.875000000000000000e+00 7.688392834537248755e-01 2.214020410589426224e-01
5.025000000000897415e+00 9.277736128437140684e-01 2.436965470950161194e-01
5.175000000000743228e+00 9.744004245626041172e-01 2.414526897772280301e-01
5.324999999999196376e+00 9.365298505541883589e-01 2.336882960770502449e-01
5.474999999999057287e+00 8.561849972234211181e-01 2.226363927108110374e-01
5.625000000000000000e+00 7.672748986025308415e-01 2.063802294806694748e-01
5.775000000000969358e+00 6.914566530172833181e-01 1.924946848880968453e-01
5.925000000001017675e+00 6.288604325307602938e-01 1.828970208647152651e-01
6.074999999998936140e+00 5.935454084394258256e-01 1.768898652196620458e-01
6.224999999998995115e+00 5.712108279278184098e-01 1.720747623433715456e-01
6.375000000000000000e+00 5.710612713422366093e-01 1.695040199718460538e-01
6.525000000001025313e+00 5.695121858213398891e-01 1.678175371223632473e-01
6.675000000001229949e+00 5.898223682626295705e-01 1.673611888234736167e-01
6.824999999998733635e+00 6.161100727020014656e-01 1.720256723557522238e-01
6.974999999999387690e+00 6.520808433563124451e-01 1.727332485458576705e-01
7.125000000000000000e+00 6.993947108130835755e-01 1.764369225662096308e-01
7.275000000000346745e+00 7.538422700628704121e-01 1.835866589674749749e-01
7.425000000001398703e+00 8.032498244788277564e-01 1.840965982113434152e-01
7.574999999998571099e+00 8.704615131772057701e-01 1.902465243754128954e-01
7.725000000000012079e+00 9.293105075341677734e-01 1.960403829761870886e-01
7.875000000000000000e+00 9.810209512242326069e-01 1.974846895078617992e-01
8.024999999999771205e+00 1.024786952226635739e+00 1.996364441687286662e-01
8.175000000001539036e+00 1.050254793075068527e+00 2.027869501208669212e-01
8.324999999998437872e+00 1.069497139576467193e+00 2.002396969822474448e-01
8.475000000000525446e+00 1.079173386652019895e+00 2.002012434717907186e-01
8.625000000000000000e+00 1.071361920721310090e+00 2.002234945917254205e-01
8.774999999999291589e+00 1.053775079566093620e+00 1.988159964497465126e-01
8.925000000001652722e+00 1.022891486403754158e+00 1.934500553061551942e-01
9.074999999998325961e+00 9.947915418847262936e-01 1.857021638008099496e-01
9.225000000000957101e+00 9.719592578140084926e-01 1.856645644740279322e-01
9.375000000000000000e+00 9.480607990904110771e-01 1.804690868376288282e-01
9.524999999998890132e+00 9.283266912941220417e-01 1.777505003744376810e-01
9.675000000001750422e+00 9.162110929116272784e-01 1.739239212720141703e-01
9.824999999998231814e+00 8.945846060285425061e-01 1.710345943188611995e-01
9.975000000001321254e+00 8.687786486043053147e-01 1.644600701634465201e-01
1.012500000000000000e+01 8.351797545324042282e-01 1.631863597898114970e-01
1.027499999999854730e+01 8.015035657387499235e-01 1.602766471855515684e-01
1.042500000000183391e+01 7.661496428494735111e-01 1.526683257067701915e-01
1.057499999999815010e+01 7.359236038670444735e-01 1.504523966983854488e-01
1.072500000000163745e+01 7.076536288970144417e-01 1.449756457991285274e-01
1.087500000000000000e+01 6.878419091776598604e-01 1.447525845466116901e-01
1.102499999999824887e+01 6.760120842484637071e-01 1.408838115547882686e-01
1.117500000000190674e+01 6.719524149541540314e-01 1.391933606329433526e-01
1.132499999999808082e+01 6.770996561169911887e-01 1.380754503492619967e-01
1.147500000000190923e+01 6.887538437014538717e-01 1.401044609272738828e-01
1.162500000000000000e+01 7.031270094151724770e-01 1.412986299558428582e-01
1.177499999999798952e+01 7.273428720937655800e-01 1.418773704838169891e-01
1.192500000000196891e+01 7.515635833588824033e-01 1.443363092169983042e-01
1.207499999999801865e+01 7.783187685438479608e-01 1.454121443028458249e-01
1.222500000000215081e+01 8.072374935233413984e-01 1.455196287649235531e-01
1.237500000000000000e+01 8.347593119948483187e-01 1.465174501320064548e-01
1.252499999999776215e+01 8.620133560025298181e-01 1.475838770277248246e-01
1.267500000000202398e+01 8.827583701653197723e-01 1.508633384593299209e-01
1.282499999999796536e+01 9.029568589006771173e-01 1.508274593550550935e-01
1.297500000000236220e+01 9.213537268401856828e-01 1.520743139248706410e-01
1.312500000000000000e+01 9.310117179417088940e-01 1.510173412402289472e-01
1.327499999999756142e+01 9.390807186841334531e-01 1.513735120775140108e-01
1.342500000000173088e+01 9.469623836839173858e-01 1.502615328695459662e-01
1.357499999999841833e+01 9.474560414912243100e-01 1.515997546917837169e-01
1.372500000000255049e+01 9.442500565119646971e-01 1.516295398819779705e-01
1.387500000000000000e+01 9.445970154662320928e-01 1.475600487671298588e-01
1.402499999999738023e+01 9.376606395292507168e-01 1.493606089743281518e-01
1.417500000000102034e+01 9.328509343491558914e-01 1.477091720534724484e-01
1.432499999999911111e+01 9.273411886773499369e-01 1.453868700116653090e-01
1.447500000000271925e+01 9.211944172517012586e-01 1.450590613051321864e-01
1.462500000000000000e+01 9.132182523811656072e-01 1.421392179899623465e-01
1.477499999999721680e+01 9.139569654319396053e-01 1.408479028480197071e-01
1.492500000000038618e+01 9.115033487241588350e-01 1.394821247141880549e-01
1.507499999999973639e+01 9.071660112263701947e-01 1.394950665622725072e-01
1.522500000000287201e+01 9.070734921421231833e-01 1.399238986118429007e-01
1.537500000000000000e+01 9.061958164167317475e-01 1.379710475604983277e-01
1.552499999999706937e+01 9.074383561215876304e-01 1.400465599629855395e-01
1.567499999999980886e+01 9.102470295338140893e-01 1.402180860413628216e-01
1.582500000000029772e+01 9.174926502532676498e-01 1.404495998544985913e-01
1.597500000000300879e+01 9.246297449648283040e-01 1.374050306142429456e-01
1.612500000000000000e+01 9.264244210864589490e-01 1.380813955959684924e-01
1.627499999999693969e+01 9.337010129069150954e-01 1.357171788490984243e-01
1.642499999999928662e+01 9.445222279083275163e-01 1.370348975354497567e-01
1.657500000000081286e+01 9.528324813139661398e-01 1.372662876603559234e-01
1.672500000000313847e+01 9.592724476745833062e-01 1.383045423636184157e-01
1.687500000000000000e+01 9.647877978750643013e-01 1.364035430909038005e-01
1.702499999999681535e+01 9.702262667866280443e-01 1.399350562290382627e-01
1.717499999999880700e+01 9.760656252321673332e-01 1.360827287502990313e-01
1.732500000000128182e+01 9.761151970597289340e-01 1.339162309477108792e-01
1.747500000000325215e+01 9.788165860809308061e-01 1.362643230145244300e-01
1.762500000000000000e+01 9.788579497208675928e-01 1.331326570193556991e-01
1.777499999999670521e+01 9.767380385131835263e-01 1.334853064735627426e-01
1.792499999999837357e+01 9.721078581821284148e-01 1.338222510370792595e-01
1.807500000000171170e+01 9.691784923264104012e-01 1.323622492982842735e-01
1.822500000000335874e+01 9.622225653964984193e-01 1.307944623079314028e-01
1.837500000000000000e+01 9.612363858125941851e-01 1.320158018324130156e-01
1.852499999999660218e+01 9.550545765501090578e-01 1.285982917103813683e-01
1.867499999999797211e+01 9.510352574401940151e-01 1.295198368476001838e-01
1.882500000000210960e+01 9.441985225423408234e-01 1.297669548500483272e-01
1.897500000000345466e+01 9.430365399656979175e-01 1.274500818193837481e-01
1.912500000000000000e+01 9.419568717613262532e-01 1.267575253009091685e-01
1.927499999999650626e+01 9.381988352476776649e-01 1.273622524306680381e-01
1.942499999999759908e+01 9.388137314525751842e-01 1.254858271564443517e-01
1.957500000000247198e+01 9.362869021909355771e-01 1.235346180300492674e-01
1.972500000000354348e+01 9.431351026801679804e-01 1.257895297259409018e-01
1.987500000000000000e+01 9.419341451461306081e-01 1.254851965029812610e-01
2.002499999999642100e+01 9.493640848455436876e-01 1.239907636290310256e-01
2.017499999999725446e+01 9.509276984119423570e-01 1.232087562707092354e-01
2.032500000000281304e+01 9.579140981042745251e-01 1.246932633852939482e-01
2.047500000000362874e+01 9.629240023702053675e-01 1.248668346939611068e-01
2.062500000000000000e+01 9.693558355015936545e-01 1.244875947669699251e-01
2.077499999999633928e+01 9.763135047881160711e-01 1.239554856822016188e-01
2.092499999999693472e+01 9.814066834885382118e-01 1.246501330916138794e-01
2.107500000000312212e+01 9.874160375393158384e-01 1.224438119103774397e-01
2.122500000000370690e+01 9.903879833237466679e-01 1.236139037389596684e-01
2.137500000000000000e+01 9.948723104339639578e-01 1.235201502433268123e-01
2.152499999999626468e+01 1.000908943132010398e+00 1.251194257848639857e-01
2.167499999999663984e+01 1.004663920044135184e+00 1.229384052136611311e-01
2.182500000000341700e+01 1.006119486909726302e+00 1.210399473241466350e-01
2.197500000000377796e+01 1.007763983312520040e+00 1.208034874977072515e-01
2.212500000000000000e+01 1.007661759658806444e+00 1.222691422161185926e-01
2.227499999999619718e+01 1.006238917259029808e+00 1.206265093332556104e-01
2.242499999999636273e+01 1.008579767019486262e+00 1.185948968152456678e-01
2.257500000000369056e+01 1.009656080412021373e+00 1.208819480454806916e-01
2.272500000000384546e+01 1.005023226757446375e+00 1.193179613339823975e-01
2.287500000000000000e+01 1.007812350251910960e+00 1.191532342509805387e-01
2.302499999999612967e+01 1.004118597499117360e+00 1.185322617892702463e-01
2.317499999999610338e+01 1.002319654219621992e+00 1.177729472800668753e-01
2.332500000000394635e+01 1.001555722345890187e+00 1.167190849762478194e-01
2.347500000000390941e+01 9.992191397035939948e-01 1.180741971325198064e-01
2.362500000000000000e+01 1.001030710519319245e+00 1.169173265355100688e-01
2.377499999999606928e+01 9.985246783841902340e-01 1.181355375471719177e-01
2.392499999999586180e+01 1.000655477335060217e+00 1.166473706220159806e-01
2.407500000000418439e+01 1.001481742991298773e+00 1.158188541675981703e-01
2.422500000000396625e+01 1.002062962850451155e+00 1.155859382544390523e-01
2.437500000000000000e+01 1.000703036973372040e+00 1.146822325603693432e-01
2.452499999999600888e+01 1.004890451564849574e+00 1.159790082003735734e-01
2.467499999999563087e+01 1.005822445772526219e+00 1.130538235674462821e-01
2.482500000000441176e+01 1.006834326090305876e+00 1.130138731844217287e-01
2.497500000000402309e+01 1.007826501569618838e+00 1.141679906903128039e-01
2.512500000000000000e+01 1.010187758383010781e+00 1.136651991836624548e-01
2.527499999999595559e+01 1.014266746408747810e+00 1.138021502699341492e-01
2.542499999999541771e+01 1.015871176635269935e+00 1.125432457065789899e-01
2.557500000000462137e+01 1.018781467286629550e+00 1.124626285737418546e-01
2.572500000000407638e+01 1.017808347114613543e+00 1.125655568135196793e-01
2.587500000000000000e+01 1.017990648105372431e+00 1.125802991084220023e-01
2.602499999999590585e+01 1.019985846432862608e+00 1.119701536064648673e-01
2.617499999999521521e+01 1.019800584358816042e+00 1.111354707227444338e-01
2.632500000000482032e+01 1.020007813452822765e+00 1.108964113598880641e-01
2.647500000000383480e+01 1.021867453914718782e+00 1.097727292341064836e-01
2.662500000000000000e+01 1.019905346500639576e+00 1.119041214625113301e-01
2.677499999999647073e+01 1.018885449866394399e+00 1.100897347993809450e-01
2.692499999999502691e+01 1.017508075747661556e+00 1.102826901454747183e-01
2.707500000000501217e+01 1.018698458164223331e+00 1.098139947243085696e-01
2.722500000000308873e+01 1.019133471752061926e+00 1.084252373228994232e-01
2.737500000000000000e+01 1.020556765692137491e+00 1.088412911373348585e-01
2.752499999999719549e+01 1.019417245459093291e+00 1.092393231712208840e-01
2.767499999999484928e+01 1.014941231257825649e+00 1.074898368376934615e-01
2.782500000000518625e+01 1.015884083859132980e+00 1.077361067978712672e-01
2.797500000000238529e+01 1.016596637224260524e+00 1.077015738910320208e-01
2.812500000000000000e+01 1.016184172269341657e+00 1.074239084232613411e-01
2.827499999999788827e+01 1.017616710717809569e+00 1.065001939539561571e-01
2.842499999999467164e+01 1.018382917241436703e+00 1.057995558587266627e-01
2.857500000000536033e+01 1.018416297812973825e+00 1.059713330418947941e-01
2.872500000000171028e+01 1.021313624480005622e+00 1.070140720371723503e-01
2.887500000000000000e+01 1.021457687481113430e+00 1.067944736172448950e-01
2.902499999999854552e+01 1.022665706291148169e+00 1.035813052104742893e-01
2.917499999999451177e+01 1.025105471857174377e+00 1.065949225387697180e-01
2.932500000000552021e+01 1.024943930096779754e+00 1.047985206308623962e-01
2.947500000000107434e+01 1.025586909976178962e+00 1.040484230770904184e-01
2.962500000000000000e+01 1.031278279536504305e+00 1.036164761920653210e-01
2.977499999999917080e+01 1.030692271186675280e+00 1.052075622563513196e-01
2.992499999999435900e+01 1.029430554787460261e+00 1.034821284206241671e-01
3.007500000000566942e+01 1.033026934789888385e+00 1.036765455148415532e-01
3.022500000000047393e+01 1.030238717236586554e+00 1.036242055607076162e-01
3.037500000000000000e+01 1.032853023945108140e+00 1.035865851571249746e-01
3.052499999999976410e+01 1.033550332177135544e+00 1.030934377410169661e-01
3.067499999999420623e+01 1.031279936936326802e+00 1.023673458171954070e-01
3.082500000000581508e+01 1.033767409397913228e+00 1.030234928437756686e-01
3.097499999999989839e+01 1.032799397713425327e+00 1.034833224099519777e-01
3.112500000000000000e+01 1.031649880158231669e+00 1.017301820327535938e-01
3.127500000000032898e+01 1.031189677802990978e+00 1.013139138075405399e-01
3.142499999999406768e+01 1.031400919181320930e+00 1.014915653313011867e-01
3.157500000000595364e+01 1.029971849224100344e+00 1.011137533561389246e-01
3.172499999999935127e+01 1.030951608641526462e+00 1.006873494574722361e-01
3.187500000000000000e+01 1.029627825229483040e+00 1.010249012028315435e-01
3.202500000000086544e+01 1.028575516035200588e+00 9.893411402721649650e-02
3.217499999999394333e+01 1.031167556563151289e+00 1.008880104651339732e-01
3.232500000000609219e+01 1.028537992919165367e+00 9.925253304927096620e-02
3.247499999999882903e+01 1.028588200915391271e+00 9.992901264408651785e-02
3.262500000000000000e+01 1.030204258662326788e+00 9.841097238822663074e-02
3.277500000000137703e+01 1.026931524323964062e+00 9.881414446701967946e-02
3.292499999999381544e+01 1.028329457073411835e+00 9.884462774921809469e-02
3.307500000000621299e+01 1.028863344255336987e+00 9.755751355760194921e-02
3.322499999999832454e+01 1.031344738864817367e+00 9.912110842984622749e-02
3.337500000000000000e+01 1.029562663452787907e+00 9.921139247257938776e-02
3.352500000000186731e+01 1.030981925558961843e+00 9.890462958925533288e-02
3.367499999999368754e+01 1.032672253534075990e+00 9.655520809834314266e-02
3.382500000000633378e+01 1.030312435619339162e+00 9.865727950262925816e-02
3.397499999999784848e+01 1.031213781423320874e+00 9.597011491425129492e-02
3.412500000000000000e+01 1.032295997790768860e+00 9.759233863565987266e-02
3.427500000000233626e+01 1.033016645183191029e+00 9.678345156850075293e-02
3.442499999999357385e+01 1.030887257282040670e+00 9.780031651012667526e-02
3.457500000000644746e+01 1.034007424120803487e+00 9.581586537709431417e-02
3.472499999999739373e+01 1.033352880900882731e+00 9.627014806772325739e-02
3.487500000000000000e+01 1.032389469132019899e+00 9.616158363573443224e-02
3.502500000000278391e+01 1.031155253941107297e+00 9.579752442435998661e-02
3.517499999999346016e+01 1.031024263860477186e+00 9.470590919354927861e-02
3.532500000000656115e+01 1.032422828655205516e+00 9.548281667695264485e-02
3.547499999999695319e+01 1.031689602724088939e+00 9.491928642273059213e-02
3.562500000000000000e+01 1.029637529120484452e+00 9.539981836557642758e-02
3.577500000000321734e+01 1.030912750226159913e+00 9.541736554058635744e-02
3.592499999999336069e+01 1.030250126605707583e+00 9.550753681045462407e-02
3.607500000000666773e+01 1.031925129261943352e+00 9.479169625445664493e-02
3.622499999999653397e+01 1.029873969456402971e+00 9.506375098998506856e-02
3.637500000000000000e+01 1.028163719981646906e+00 9.221364426576368623e-02
3.652500000000362235e+01 1.030083063974569502e+00 9.331829259549019595e-02
3.667499999999325411e+01 1.031331167490522560e+00 9.325179693775258183e-02
3.682500000000676721e+01 1.030613906568096372e+00 9.253427620641982432e-02
3.697499999999613607e+01 1.028996404870404335e+00 9.345619239477842566e-02
3.712500000000000000e+01 1.030166048112805210e+00 9.329285395397707292e-02
3.727500000000402736e+01 1.028892184382447228e+00 9.391370969063068952e-02
3.742499999999315463e+01 1.030141042438429633e+00 9.240146235263538288e-02
3.757500000000686668e+01 1.030085197028026256e+00 9.392370221125563579e-02
3.772499999999575238e+01 1.030337196673231537e+00 9.249337428729355326e-02
3.787500000000000000e+01 1.029821326580603547e+00 9.197722330279911596e-02
3.802500000000440394e+01 1.030870770648945944e+00 9.114399938324840855e-02
3.817499999999306226e+01 1.031641120038930381e+00 9.195276389947468210e-02
3.832500000000695906e+01 1.030439844618117107e+00 9.138974314833371582e-02
3.847499999999537579e+01 1.029452142327581754e+00 9.070349798712527833e-02
3.862500000000000000e+01 1.029192195037393009e+00 9.220465112528833385e-02
3.877500000000476632e+01 1.030708456809883211e+00 9.176144261296256821e-02
3.892499999999297700e+01 1.030171968919763481e+00 9.086664930738672097e-02
3.907500000000705143e+01 1.030211445443059759e+00 9.137772954414048743e-02
3.922499999999502052e+01 1.028024063687804635e+00 9.063362986918763187e-02
3.937500000000000000e+01 1.031809184310187977e+00 9.056653082654513021e-02
3.952500000000512159e+01 1.027978478463198897e+00 8.943793706708652591e-02
3.967499999999288463e+01 1.028725885332657297e+00 9.121570328283037932e-02
3.982500000000712959e+01 1.029052576046129763e+00 9.045762923144255729e-02
