# Radius RDF_mean RDF_std
7.500000000000896228e-02 1.085291990486723784e-01 6.734796923622821119e-01
2.249999999999577616e-01 1.028024330757067034e-01 3.824990697026581232e-01
3.750000000000000000e-01 1.085291990486696029e-01 3.018708241834909267e-01
5.249999999999700462e-01 1.084693373834483554e-01 2.541040327243215269e-01
6.750000000001169509e-01 1.102518847478567016e-01 2.279756532449103701e-01
8.249999999998777200e-01 1.127195156142620225e-01 2.059113344502849774e-01
9.750000000001839418e-01 1.159750692536710565e-01 1.935047449460163826e-01
1.125000000000000000e+00 1.207090525326373481e-01 1.846386895414223461e-01
1.274999999999773648e+00 1.238115300525681473e-01 1.757989660161496659e-01
1.424999999999764455e+00 1.267019403646858777e-01 1.662050768769300357e-01
1.575000000000282396e+00 1.295605974302233288e-01 1.607764149375229823e-01
1.725000000000170397e+00 1.379889463815097139e-01 1.564987244057660654e-01
1.875000000000000000e+00 1.393699289713794809e-01 1.528917910637167532e-01
2.025000000000070521e+00 1.484924033315752068e-01 1.512608893247053554e-01
2.174999999999594813e+00 1.518195039814270175e-01 1.467833203265692665e-01
2.325000000000426059e+00 1.612325677235867671e-01 1.472618359766266483e-01
2.474999999999678124e+00 1.675618709074989388e-01 1.448877733255766742e-01
2.625000000000000000e+00 1.775496990503944161e-01 1.438113525641807888e-01
2.775000000000444444e+00 1.875789547994667350e-01 1.464066643699822312e-01
2.924999999999512212e+00 1.979655967202956779e-01 1.460376389049834189e-01
3.075000000000499334e+00 2.084426984271215977e-01 1.461450668465629210e-01
3.224999999999414779e+00 2.199623849265128217e-01 1.466856556605793394e-01
3.375000000000000000e+00 2.325346339462298906e-01 1.466149148994974893e-01
3.525000000000659384e+00 2.466224188026291120e-01 1.492920450270107668e-01
3.674999999999857714e+00 2.602357620558009565e-01 1.492179489168021234e-01
3.825000000000022382e+00 2.796830899853600672e-01 1.504252506029149505e-01
3.974999999999250466e+00 2.967534754201793801e-01 1.514737480700199257e-01
4.125000000000000000e+00 3.208487300482140148e-01 1.563878139449857985e-01
4.275000000000798828e+00 3.470023202259518991e-01 1.604872839834936005e-01
4.425000000000374634e+00 3.781583144654627748e-01 1.613934375383891673e-01
4.574999999999541878e+00 4.172181425039632741e-01 1.708733215260731242e-01
4.724999999999138112e+00 4.685505562899915377e-01 1.759086277157595746e-01
4.875000000000000000e+00 5.222939500163765736e-01 1.836219165471020820e-01
5.025000000000897415e+00 5.541099508623462677e-01 1.856337217132301709e-01
5.175000000000743228e+00 5.708607934515735893e-01 1.857003025828137810e-01
5.324999999999196376e+00 5.709512885512498803e-01 1.819207426340286038e-01
5.474999999999057287e+00 5.680232411837066175e-01 1.805011502956846148e-01
5.625000000000000000e+00 5.638881066864992464e-01 1.761509573414899166e-01
5.775000000000969358e+00 5.683157656847240835e-01 1.751867540052229888e-01
5.925000000001017675e+00 5.765822552264473488e-01 1.760018479669061553e-01
6.074999999998936140e+00 5.928263294238494963e-01 1.755352724456473168e-01
6.224999999998995115e+00 6.070203645539572479e-01 1.781334373421033790e-01
6.375000000000000000e+00 6.375985686195552171e-01 1.792601265891557438e-01
6.525000000001025313e+00 6.638280237377768289e-01 1.800387366014645218e-01
6.675000000001229949e+00 7.044110475583472697e-01 1.854772273057248566e-01
6.824999999998733635e+00 7.472301432570168656e-01 1.876492571765275841e-01
6.974999999999387690e+00 7.948174438737389824e-01 1.921299993061806044e-01
7.125000000000000000e+00 8.414729075436916395e-01 1.953352342219037141e-01
7.275000000000346745e+00 8.931724558255839108e-01 1.982044073904197790e-01
7.425000000001398703e+00 9.448994549676259513e-01 2.023219972450854276e-01
7.574999999998571099e+00 9.978678809124192917e-01 2.053808717849669174e-01
7.725000000000012079e+00 1.043034885470457418e+00 2.096246302401803541e-01
7.875000000000000000e+00 1.081588548798279259e+00 2.073703494191204144e-01
8.024999999999771205e+00 1.113809640234947773e+00 2.102837776381359658e-01
8.175000000001539036e+00 1.139973699504090998e+00 2.136971570630444850e-01
8.324999999998437872e+00 1.146134632007063558e+00 2.127397489194306768e-01
8.475000000000525446e+00 1.144946523752731204e+00 2.086972269730159868e-01
8.625000000000000000e+00 1.128740107641554413e+00 2.041698177290515170e-01
8.774999999999291589e+00 1.100900024326755933e+00 2.007794728404691531e-01
8.925000000001652722e+00 1.066389789374073471e+00 1.961107582326486187e-01
9.074999999998325961e+00 1.019095377965125948e+00 1.913433535866874424e-01
9.225000000000957101e+00 9.813142247157136122e-01 1.873205318947195053e-01
9.375000000000000000e+00 9.430391237182149666e-01 1.810007321507547118e-01
9.524999999998890132e+00 9.156072658135407938e-01 1.757651457795124661e-01
9.675000000001750422e+00 8.852417300152759516e-01 1.723898882796981724e-01
9.824999999998231814e+00 8.590596779541952444e-01 1.689154309114435648e-01
9.975000000001321254e+00 8.339234063749221271e-01 1.657475482682079782e-01
1.012500000000000000e+01 8.035102731111660734e-01 1.596457643308734908e-01
1.027499999999854730e+01 7.786648111436920150e-01 1.561482746694299040e-01
1.042500000000183391e+01 7.540972071450029457e-01 1.529032358687242577e-01
1.057499999999815010e+01 7.362356487176702213e-01 1.498217706080704759e-01
1.072500000000163745e+01 7.208194277286058549e-01 1.469383685330410694e-01
1.087500000000000000e+01 7.133710516193053630e-01 1.461412993308528752e-01
1.102499999999824887e+01 7.104040361966273975e-01 1.437553497973748096e-01
1.117500000000190674e+01 7.161841592115567590e-01 1.438265013202030540e-01
1.132499999999808082e+01 7.234262420414130368e-01 1.429663427968622669e-01
1.147500000000190923e+01 7.370931165005374375e-01 1.437244859603556413e-01
1.162500000000000000e+01 7.517509021562279736e-01 1.444935686431398358e-01
1.177499999999798952e+01 7.707807078293716918e-01 1.460147328378440801e-01
1.192500000000196891e+01 7.911264967441509199e-01 1.455977794361606459e-01
1.207499999999801865e+01 8.097123079314852978e-01 1.486249047708193272e-01
1.222500000000215081e+01 8.286338154714215642e-01 1.488843022831852492e-01
1.237500000000000000e+01 8.476223140583113436e-01 1.498639516635922042e-01
1.252499999999776215e+01 8.686501148743761558e-01 1.517203141503740416e-01
1.267500000000202398e+01 8.862221998943830004e-01 1.508878180689657289e-01
1.282499999999796536e+01 8.977716484604613134e-01 1.505708795711800940e-01
1.297500000000236220e+01 9.070460968095936938e-01 1.511502268239125202e-01
1.312500000000000000e+01 9.176074938650538027e-01 1.502540601611172255e-01
1.327499999999756142e+01 9.216163315065433181e-01 1.499048442558509331e-01
1.342500000000173088e+01 9.272491681538616026e-01 1.512281145526330750e-01
1.357499999999841833e+01 9.265507605038031391e-01 1.476363339012245479e-01
1.372500000000255049e+01 9.251119877386511092e-01 1.492124458336487325e-01
1.387500000000000000e+01 9.248730821402183500e-01 1.475641557309331775e-01
1.402499999999738023e+01 9.202248891566201516e-01 1.464607262589550651e-01
1.417500000000102034e+01 9.157061100096346440e-01 1.450237513417583224e-01
1.432499999999911111e+01 9.100424210754390897e-01 1.438407530926278100e-01
1.447500000000271925e+01 9.148872309185321905e-01 1.447305154344714906e-01
1.462500000000000000e+01 9.125714394138658703e-01 1.427977038600860282e-01
1.477499999999721680e+01 9.117703433865497198e-01 1.437809242295882972e-01
1.492500000000038618e+01 9.128720450897972460e-01 1.431567358191799533e-01
1.507499999999973639e+01 9.117399189601516074e-01 1.403170039326807061e-01
1.522500000000287201e+01 9.159639815253611816e-01 1.422264007489171256e-01
1.537500000000000000e+01 9.171110800558648357e-01 1.404140144334947715e-01
1.552499999999706937e+01 9.218149881258371758e-01 1.372518553254251372e-01
1.567499999999980886e+01 9.301099320291524863e-01 1.388425237824930658e-01
1.582500000000029772e+01 9.338110536747896706e-01 1.399611441227813502e-01
1.597500000000300879e+01 9.382905704255918300e-01 1.384578607540412065e-01
1.612500000000000000e+01 9.498180814291267149e-01 1.384980353818041632e-01
1.627499999999693969e+01 9.539323247307148756e-01 1.381616018557172143e-01
1.642499999999928662e+01 9.609142105646651943e-01 1.396358607767841098e-01
1.657500000000081286e+01 9.648611547492967899e-01 1.392147824232116693e-01
1.672500000000313847e+01 9.682468655746924169e-01 1.376567493584598123e-01
1.687500000000000000e+01 9.727326380834198094e-01 1.377468180205938808e-01
1.702499999999681535e+01 9.754373961543203464e-01 1.363751364168172275e-01
1.717499999999880700e+01 9.737984626885984873e-01 1.347597193419451111e-01
1.732500000000128182e+01 9.742014377624638177e-01 1.363853324723748039e-01
1.747500000000325215e+01 9.710959727693155852e-01 1.335692172828397140e-01
1.762500000000000000e+01 9.717254959922168034e-01 1.360686818275374521e-01
1.777499999999670521e+01 9.635376572985624444e-01 1.345738033902175168e-01
1.792499999999837357e+01 9.575522062459330686e-01 1.312179593397999333e-01
1.807500000000171170e+01 9.559763870639642613e-01 1.311417433610599093e-01
1.822500000000335874e+01 9.511397816240578784e-01 1.298856343906389932e-01
1.837500000000000000e+01 9.464796301685592939e-01 1.284512629966343134e-01
1.852499999999660218e+01 9.411400111772612043e-01 1.294127040750465973e-01
1.867499999999797211e+01 9.353762632061528581e-01 1.270043778168620519e-01
1.882500000000210960e+01 9.346592919225233942e-01 1.267863536845130756e-01
1.897500000000345466e+01 9.319413104507414669e-01 1.268784605026216650e-01
1.912500000000000000e+01 9.327365320556412209e-01 1.257496913959275098e-01
1.927499999999650626e+01 9.319035775590706061e-01 1.261017773042515944e-01
1.942499999999759908e+01 9.329828816833124483e-01 1.241958262082040049e-01
1.957500000000247198e+01 9.326135518836335958e-01 1.258497593524673108e-01
1.972500000000354348e+01 9.373053048423470868e-01 1.253586771164429403e-01
1.987500000000000000e+01 9.438743407785747941e-01 1.238364235779213229e-01
2.002499999999642100e+01 9.468954077078404197e-01 1.237348233232716671e-01
2.017499999999725446e+01 9.511769365719844327e-01 1.224957315645229944e-01
2.032500000000281304e+01 9.567374077329046100e-01 1.241895731251783097e-01
2.047500000000362874e+01 9.622977572571077554e-01 1.235844466441882172e-01
2.062500000000000000e+01 9.667578392309307267e-01 1.225555118778412084e-01
2.077499999999633928e+01 9.762287908070070852e-01 1.251152241900084505e-01
2.092499999999693472e+01 9.800714894287447798e-01 1.227195001917274902e-01
2.107500000000312212e+01 9.861529777061978086e-01 1.230615310291987563e-01
2.122500000000370690e+01 9.913652302966357022e-01 1.241916687188110019e-01
2.137500000000000000e+01 9.952986935230915266e-01 1.226191147222161493e-01
2.152499999999626468e+01 9.970354553799113395e-01 1.224226877208215158e-01
2.167499999999663984e+01 1.001885841656707576e+00 1.225907741889063762e-01
2.182500000000341700e+01 1.000394160908083530e+00 1.212693360044294760e-01
2.197500000000377796e+01 1.004486097453023641e+00 1.223769896879376012e-01
2.212500000000000000e+01 1.002045315014631122e+00 1.219722624484198409e-01
2.227499999999619718e+01 1.000237029491350738e+00 1.217852444451604094e-01
2.242499999999636273e+01 1.001928515373914141e+00 1.189422138986454824e-01
2.257500000000369056e+01 1.000802122486057044e+00 1.202518238021277053e-01
2.272500000000384546e+01 1.001228431821482356e+00 1.182914086348352822e-01
2.287500000000000000e+01 9.981237888025661364e-01 1.195668013359340170e-01
2.302499999999612967e+01 9.961842945037614472e-01 1.175281157078613414e-01
2.317499999999610338e+01 9.971665141066006210e-01 1.172270663489925202e-01
2.332500000000394635e+01 9.962834687378046006e-01 1.156231559566130579e-01
2.347500000000390941e+01 9.947543774843567999e-01 1.175153285379389040e-01
2.362500000000000000e+01 9.952720183248956465e-01 1.147944357741548238e-01
2.377499999999606928e+01 9.930918073796000112e-01 1.174331376917649022e-01
2.392499999999586180e+01 9.947667033026077466e-01 1.150602407039081759e-01
2.407500000000418439e+01 9.968893648985449607e-01 1.131436975203107403e-01
2.422500000000396625e+01 9.998666142605080465e-01 1.139028145870842751e-01
2.437500000000000000e+01 9.992847759819429854e-01 1.148046222136806793e-01
2.452499999999600888e+01 1.002303219410133561e+00 1.135910161915809624e-01
2.467499999999563087e+01 1.004979287849604663e+00 1.145307204672591089e-01
2.482500000000441176e+01 1.004936657047460713e+00 1.137996762256345135e-01
2.497500000000402309e+01 1.008226657926328818e+00 1.129726630756475864e-01
2.512500000000000000e+01 1.007389627589807768e+00 1.137320756284620621e-01
2.527499999999595559e+01 1.012382969080301898e+00 1.133518397245683595e-01
2.542499999999541771e+01 1.012560950156615736e+00 1.127428390818141085e-01
2.557500000000462137e+01 1.012108910409465379e+00 1.120042177678896578e-01
2.572500000000407638e+01 1.014208095534797183e+00 1.130524000348959446e-01
2.587500000000000000e+01 1.013898712885239473e+00 1.125076535758222640e-01
2.602499999999590585e+01 1.013823545155001948e+00 1.116698380546436858e-01
2.617499999999521521e+01 1.013327805961944161e+00 1.113288370133205529e-01
2.632500000000482032e+01 1.015939266770337523e+00 1.104253040368064764e-01
2.647500000000383480e+01 1.014462582884658293e+00 1.109379829647680615e-01
2.662500000000000000e+01 1.014671582091682955e+00 1.100674357549929067e-01
2.677499999999647073e+01 1.014489725626025463e+00 1.100753454150829175e-01
2.692499999999502691e+01 1.014907511594971501e+00 1.094708743752848823e-01
2.707500000000501217e+01 1.011436790453895229e+00 1.083834827010942553e-01
2.722500000000308873e+01 1.013215082487111340e+00 1.076131121639392618e-01
2.737500000000000000e+01 1.012641085494959459e+00 1.081847082035482660e-01
2.752499999999719549e+01 1.012937668753448817e+00 1.073953724873341065e-01
2.767499999999484928e+01 1.010936015396894483e+00 1.065580784134636666e-01
2.782500000000518625e+01 1.012564585102723624e+00 1.069861492009618331e-01
2.797500000000238529e+01 1.013697117906355860e+00 1.068527143753675995e-01
2.812500000000000000e+01 1.013843182081370253e+00 1.070047439671451828e-01
2.827499999999788827e+01 1.012851753922939579e+00 1.067273024926596314e-01
2.842499999999467164e+01 1.014040024505398874e+00 1.050592599738150446e-01
2.857500000000536033e+01 1.015835018815747448e+00 1.062019991789176776e-01
2.872500000000171028e+01 1.017180199940900920e+00 1.068614671611558681e-01
2.887500000000000000e+01 1.019326612199193960e+00 1.054479202575877295e-01
2.902499999999854552e+01 1.018659460479095058e+00 1.041192110999404757e-01
2.917499999999451177e+01 1.021941728990045428e+00 1.041560339234454957e-01
2.932500000000552021e+01 1.022169318948882522e+00 1.062195704181379541e-01
2.947500000000107434e+01 1.021849744693132500e+00 1.060377979181154895e-01
2.962500000000000000e+01 1.024589685626124735e+00 1.045916760446647803e-01
2.977499999999917080e+01 1.024700224047430774e+00 1.034352155887406366e-01
2.992499999999435900e+01 1.026252635507397981e+00 1.047705709258354018e-01
3.007500000000566942e+01 1.028702862483560354e+00 1.020047918220991501e-01
3.022500000000047393e+01 1.028133161145939889e+00 1.025452143228222368e-01
3.037500000000000000e+01 1.030298482809202776e+00 1.029507910712712526e-01
3.052499999999976410e+01 1.030223817969913913e+00 1.033335569298477336e-01
3.067499999999420623e+01 1.026625509513965584e+00 1.028098322143247839e-01
3.082500000000581508e+01 1.028892980322471118e+00 1.011850464187181997e-01
3.097499999999989839e+01 1.027958719666348442e+00 1.027748139116961973e-01
3.112500000000000000e+01 1.026495285925137724e+00 1.020487632434354947e-01
3.127500000000032898e+01 1.028115774116153958e+00 1.012873768277908898e-01
3.142499999999406768e+01 1.025509474100687379e+00 1.017146567942114888e-01
3.157500000000595364e+01 1.025000202847589525e+00 1.017206227357213555e-01
3.172499999999935127e+01 1.025219889575694543e+00 1.004275200723546146e-01
3.187500000000000000e+01 1.026546710107730354e+00 1.001434160521999378e-01
3.202500000000086544e+01 1.024990685493261333e+00 1.005298324684854583e-01
3.217499999999394333e+01 1.023984435811795102e+00 9.934779287620644495e-02
3.232500000000609219e+01 1.024146424490685936e+00 9.980331584592772032e-02
3.247499999999882903e+01 1.027304976950962345e+00 9.915126351101438695e-02
3.262500000000000000e+01 1.023947682548880245e+00 9.842815469532825712e-02
3.277500000000137703e+01 1.026252635507385325e+00 9.936258041403715768e-02
3.292499999999381544e+01 1.026719191914840401e+00 9.904272783383590018e-02
3.307500000000621299e+01 1.026563896162656642e+00 9.760455100258344507e-02
3.322499999999832454e+01 1.025875571735651137e+00 9.856966102187472711e-02
3.337500000000000000e+01 1.029362093244138299e+00 9.734354493622429660e-02
3.352500000000186731e+01 1.026411949438772231e+00 9.708644378362460414e-02
3.367499999999368754e+01 1.027949981413389224e+00 9.800297288408904572e-02
3.382500000000633378e+01 1.027889299121988120e+00 9.775251220646367922e-02
3.397499999999784848e+01 1.027510947601676161e+00 9.600251284017252695e-02
3.412500000000000000e+01 1.027687570517319626e+00 9.672154730789282728e-02
3.427500000000233626e+01 1.027742531203921228e+00 9.640067732837050152e-02
3.442499999999357385e+01 1.029009374673024002e+00 9.772737552816301854e-02
3.457500000000644746e+01 1.029318996171715073e+00 9.805072533576762728e-02
3.472499999999739373e+01 1.028788784477500329e+00 9.534498589996880102e-02
3.487500000000000000e+01 1.029471566973019447e+00 9.602824145367884479e-02
3.502500000000278391e+01 1.028265101980133878e+00 9.580515854024788946e-02
3.517499999999346016e+01 1.029106010200288246e+00 9.647711318471975661e-02
3.532500000000656115e+01 1.026807270659029436e+00 9.602040203712543243e-02
3.547499999999695319e+01 1.027403608740097729e+00 9.475115258140563712e-02
3.562500000000000000e+01 1.028284277412773173e+00 9.559542657045748404e-02
3.577500000000321734e+01 1.026595055064768669e+00 9.611689901607066433e-02
3.592499999999336069e+01 1.028026371969023689e+00 9.555737348739046233e-02
3.607500000000666773e+01 1.027155486185731936e+00 9.537305204201040887e-02
3.622499999999653397e+01 1.026498292074055962e+00 9.469490870809783856e-02
3.637500000000000000e+01 1.026312204847613652e+00 9.307525175249768690e-02
3.652500000000362235e+01 1.027351184078115542e+00 9.467596180844599363e-02
3.667499999999325411e+01 1.027810101893791961e+00 9.346380207835819354e-02
3.682500000000676721e+01 1.026822139459975691e+00 9.443892040705281765e-02
3.697499999999613607e+01 1.026950544429557910e+00 9.362635394561580338e-02
3.712500000000000000e+01 1.026922150521015764e+00 9.203183200918804707e-02
3.727500000000402736e+01 1.027928495884569138e+00 9.451764273608273537e-02
3.742499999999315463e+01 1.029530549423764096e+00 9.285415049219723771e-02
3.757500000000686668e+01 1.026039576024488253e+00 9.136040760199944100e-02
3.772499999999575238e+01 1.027855496265893898e+00 9.368065429943246702e-02
3.787500000000000000e+01 1.026471562625107747e+00 9.257407152559958552e-02
3.802500000000440394e+01 1.029030172031281998e+00 9.304669586456650043e-02
3.817499999999306226e+01 1.027086105980505204e+00 9.137644707260662857e-02
3.832500000000695906e+01 1.028479170076372684e+00 9.138977723016228349e-02
3.847499999999537579e+01 1.028783978789445275e+00 9.168569108009515245e-02
3.862500000000000000e+01 1.028518489772094480e+00 9.147443132069786598e-02
3.877500000000476632e+01 1.030145965572642375e+00 9.084385032487404810e-02
3.892499999999297700e+01 1.028834135673291295e+00 9.164145669213109857e-02
3.907500000000705143e+01 1.026958119050005225e+00 9.021420032740827544e-02
3.922499999999502052e+01 1.027269325981347681e+00 9.012338366295931380e-02
3.937500000000000000e+01 1.028806523182624000e+00 9.116401855778204222e-02
3.952500000000512159e+01 1.028349007404289583e+00 9.053103090503412942e-02
3.967499999999288463e+01 1.027047382345428694e+00 9.010337469576285008e-02
3.982500000000712959e+01 1.025677437825598171e+00 9.080711226119457524e-02
